! XYN file created by WinPLOTR
!            X_1            Yobs
        20.02960        16.00000
        20.06300        25.00000
        20.09650        27.00000
        20.12990        20.00000
        20.16330        16.00000
        20.19669        17.00000
        20.23009        20.00000
        20.26359        20.00000
        20.29699        20.00000
        20.33039        16.00000
        20.36379        27.00000
        20.39729        18.00000
        20.43069        22.00000
        20.46409        12.00000
        20.49749        23.00000
        20.53099        16.00000
        20.56439        27.00000
        20.59779        17.00000
        20.63118        21.00000
        20.66459        17.00000
        20.69808        17.00000
        20.73148        16.00000
        20.76488        20.00000
        20.79828        25.00000
        20.83178        20.00000
        20.86518        13.00000
        20.89858        16.00000
        20.93198        15.00000
        20.96538        26.00000
        20.99888        27.00000
        21.03228        30.00000
        21.06568        22.00000
        21.09908        17.00000
        21.13257        22.00000
        21.16598        20.00000
        21.19937        18.00000
        21.23277        12.00000
        21.26617        27.00000
        21.29967        15.00000
        21.33307        22.00000
        21.36647        13.00000
        21.39987        12.00000
        21.43337        12.00000
        21.46677        20.00000
        21.50017        15.00000
        21.53357        16.00000
        21.56697        18.00000
        21.60047        12.00000
        21.63386        23.00000
        21.66726        23.00000
        21.70066        25.00000
        21.73416        17.00000
        21.76756        23.00000
        21.80096        17.00000
        21.83436        25.00000
        21.86786        22.00000
        21.90126        22.00000
        21.93466        20.00000
        21.96806        23.00000
        22.00146        15.00000
        22.03496        20.00000
        22.06835        23.00000
        22.10175        18.00000
        22.13515        23.00000
        22.16865        23.00000
        22.20205        17.00000
        22.23545        18.00000
        22.26885        17.00000
        22.30225        23.00000
        22.33575        16.00000
        22.36915        13.00000
        22.40255        23.00000
        22.43595        30.00000
        22.46945        21.00000
        22.50284        13.00000
        22.53624        23.00000
        22.56964        15.00000
        22.60304        20.00000
        22.63654        18.00000
        22.66994        21.00000
        22.70334        25.00000
        22.73674        32.00000
        22.77024        28.00000
        22.80364        23.00000
        22.83704        25.00000
        22.87044        13.00000
        22.90393        18.00000
        22.93733        15.00000
        22.97074        21.00000
        23.00413        16.00000
        23.03753        26.00000
        23.07103        21.00000
        23.10443        20.00000
        23.13783        35.00000
        23.17123        13.00000
        23.20473        23.00000
        23.23813        16.00000
        23.27153        28.00000
        23.30493        17.00000
        23.33833        22.00000
        23.37183        21.00000
        23.40522         8.00000
        23.43862        20.00000
        23.47202        20.00000
        23.50552        21.00000
        23.53892        13.00000
        23.57232        12.00000
        23.60572        21.00000
        23.63912        17.00000
        23.67262        21.00000
        23.70602        32.00000
        23.73942        22.00000
        23.77282        21.00000
        23.80631        21.00000
        23.83971        27.00000
        23.87311        28.00000
        23.90651        13.00000
        23.93991        26.00000
        23.97341        23.00000
        24.00681        23.00000
        24.04021        26.00000
        24.07361        28.00000
        24.10711        18.00000
        24.14051        22.00000
        24.17391        22.00000
        24.20730        16.00000
        24.24080        28.00000
        24.27420        30.00000
        24.30760        26.00000
        24.34100        23.00000
        24.37440        22.00000
        24.40790        13.00000
        24.44130        13.00000
        24.47470        15.00000
        24.50810        25.00000
        24.54160        30.00000
        24.57500        20.00000
        24.60839        23.00000
        24.64179        17.00000
        24.67519        21.00000
        24.70869        18.00000
        24.74209        17.00000
        24.77549        26.00000
        24.80889        25.00000
        24.84239        18.00000
        24.87579        20.00000
        24.90919        21.00000
        24.94259        18.00000
        24.97598        15.00000
        25.00949        18.00000
        25.04288        17.00000
        25.07628        22.00000
        25.10968        31.00000
        25.14318        28.00000
        25.17658        16.00000
        25.20998        18.00000
        25.24338        22.00000
        25.27688        16.00000
        25.31028        26.00000
        25.34368        22.00000
        25.37708        21.00000
        25.41047        23.00000
        25.44397        22.00000
        25.47737        20.00000
        25.51077        28.00000
        25.54417        18.00000
        25.57767        16.00000
        25.61107        16.00000
        25.64447        18.00000
        25.67787        30.00000
        25.71127        20.00000
        25.74477        20.00000
        25.77817        27.00000
        25.81156        18.00000
        25.84496        23.00000
        25.87846        16.00000
        25.91186        15.00000
        25.94526        12.00000
        25.97866        20.00000
        26.01206        32.00000
        26.04556        25.00000
        26.07896        28.00000
        26.11236        17.00000
        26.14575        23.00000
        26.17925        21.00000
        26.21265        23.00000
        26.24605        16.00000
        26.27945        21.00000
        26.31285        17.00000
        26.34635        22.00000
        26.37975        22.00000
        26.41315        17.00000
        26.44655        25.00000
        26.48005        23.00000
        26.51344        22.00000
        26.54684        16.00000
        26.58024        20.00000
        26.61374        18.00000
        26.64714        28.00000
        26.68054        20.00000
        26.71394        15.00000
        26.74734        27.00000
        26.78084        23.00000
        26.81424        13.00000
        26.84764        26.00000
        26.88103        21.00000
        26.91454        25.00000
        26.94793        21.00000
        26.98133        17.00000
        27.01473        17.00000
        27.04813        18.00000
        27.08163        20.00000
        27.11503        21.00000
        27.14843        26.00000
        27.18183        12.00000
        27.21533        27.00000
        27.24873        22.00000
        27.28213        21.00000
        27.31553        26.00000
        27.34892        17.00000
        27.38242        28.00000
        27.41582        27.00000
        27.44922        11.00000
        27.48262        23.00000
        27.51612        21.00000
        27.54952        22.00000
        27.58292        18.00000
        27.61632        18.00000
        27.64981        25.00000
        27.68321        27.00000
        27.71661        20.00000
        27.75001        15.00000
        27.78341        16.00000
        27.81691        26.00000
        27.85031        25.00000
        27.88371        30.00000
        27.91711        20.00000
        27.95061        21.00000
        27.98400        22.00000
        28.01740        26.00000
        28.05080        21.00000
        28.08420        17.00000
        28.11770        16.00000
        28.15110        30.00000
        28.18450        22.00000
        28.21790        15.00000
        28.25140        18.00000
        28.28480         8.00000
        28.31820        18.00000
        28.35159        25.00000
        28.38499        17.00000
        28.41849        25.00000
        28.45189        16.00000
        28.48529        15.00000
        28.51869        16.00000
        28.55219        32.00000
        28.58559        16.00000
        28.61899        22.00000
        28.65239        25.00000
        28.68579        18.00000
        28.71928        20.00000
        28.75268        17.00000
        28.78608        27.00000
        28.81948        26.00000
        28.85298        20.00000
        28.88638        21.00000
        28.91978        27.00000
        28.95318        26.00000
        28.98668        21.00000
        29.02008        17.00000
        29.05347        18.00000
        29.08687        25.00000
        29.12027        21.00000
        29.15377        25.00000
        29.18717        18.00000
        29.22057        25.00000
        29.25397        25.00000
        29.28747        30.00000
        29.32087        32.00000
        29.35427        18.00000
        29.38766        28.00000
        29.42106        12.00000
        29.45456        22.00000
        29.48796        22.00000
        29.52136        32.00000
        29.55476        37.00000
        29.58826        17.00000
        29.62166        21.00000
        29.65506        17.00000
        29.68846        17.00000
        29.72186        28.00000
        29.75535        22.00000
        29.78875        27.00000
        29.82215        26.00000
        29.85555        22.00000
        29.88905        21.00000
        29.92245        21.00000
        29.95585        23.00000
        29.98925        17.00000
        30.02265        21.00000
        30.05615        23.00000
        30.08954        22.00000
        30.12294        25.00000
        30.15634        22.00000
        30.18984        17.00000
        30.22324        27.00000
        30.25664        23.00000
        30.29004        28.00000
        30.32354        23.00000
        30.35694        28.00000
        30.39034        26.00000
        30.42373        25.00000
        30.45713        22.00000
        30.49063        25.00000
        30.52403        31.00000
        30.55743        23.00000
        30.59083        23.00000
        30.62433        35.00000
        30.65773        32.00000
        30.69113        36.00000
        30.72453        27.00000
        30.75793        36.00000
        30.79142        28.00000
        30.82482        23.00000
        30.85822        26.00000
        30.89162        33.00000
        30.92512        32.00000
        30.95852        47.00000
        30.99192        18.00000
        31.02532        41.00000
        31.05872        38.00000
        31.09221        41.00000
        31.12561        32.00000
        31.15901        27.00000
        31.19241        31.00000
        31.22591        26.00000
        31.25931        26.00000
        31.29271        32.00000
        31.32611        28.00000
        31.35961        41.00000
        31.39300        45.00000
        31.42640        33.00000
        31.45980        46.00000
        31.49320        61.00000
        31.52670        80.00000
        31.56010        89.00000
        31.59350       130.00000
        31.62690       174.00000
        31.66040       268.00000
        31.69379       457.00000
        31.72719       767.00000
        31.76059      1101.00000
        31.79399      1105.00000
        31.82749       986.00000
        31.86089       711.00000
        31.89429       458.00000
        31.92769       281.00000
        31.96119       145.00000
        31.99459       101.00000
        32.02798        80.00000
        32.06138        40.00000
        32.09478        57.00000
        32.12828        38.00000
        32.16168        41.00000
        32.19508        37.00000
        32.22848        41.00000
        32.26197        46.00000
        32.29538        36.00000
        32.32878        37.00000
        32.36217        40.00000
        32.39567        38.00000
        32.42907        38.00000
        32.46247        32.00000
        32.49587        22.00000
        32.52927        42.00000
        32.56277        17.00000
        32.59617        28.00000
        32.62956        33.00000
        32.66296        27.00000
        32.69646        22.00000
        32.72986        40.00000
        32.76326        23.00000
        32.79666        25.00000
        32.83006        40.00000
        32.86356        25.00000
        32.89696        35.00000
        32.93036        26.00000
        32.96375        16.00000
        32.99725        27.00000
        33.03065        22.00000
        33.06405        17.00000
        33.09745        31.00000
        33.13085        30.00000
        33.16435        31.00000
        33.19775        31.00000
        33.23114        31.00000
        33.26455        27.00000
        33.29804        33.00000
        33.33144        25.00000
        33.36484        31.00000
        33.39824        26.00000
        33.43164        25.00000
        33.46514        20.00000
        33.49854        32.00000
        33.53193        22.00000
        33.56533        25.00000
        33.59883        35.00000
        33.63223        37.00000
        33.66563        32.00000
        33.69903        25.00000
        33.73253        32.00000
        33.76593        27.00000
        33.79932        43.00000
        33.83273        40.00000
        33.86612        41.00000
        33.89962        28.00000
        33.93302        22.00000
        33.96642        37.00000
        33.99982        37.00000
        34.03332        42.00000
        34.06672        42.00000
        34.10011        30.00000
        34.13351        30.00000
        34.16692        52.00000
        34.20041        70.00000
        34.23381        75.00000
        34.26721        80.00000
        34.30061       138.00000
        34.33411       286.00000
        34.36751       448.00000
        34.40091       758.00000
        34.43430       876.00000
        34.46770       721.00000
        34.50120       619.00000
        34.53460       477.00000
        34.56800       267.00000
        34.60140       135.00000
        34.63490        95.00000
        34.66830        79.00000
        34.70169        60.00000
        34.73510        41.00000
        34.76859        45.00000
        34.80199        32.00000
        34.83539        40.00000
        34.86879        35.00000
        34.90219        33.00000
        34.93569        41.00000
        34.96909        38.00000
        35.00248        46.00000
        35.03588        40.00000
        35.06939        37.00000
        35.10278        38.00000
        35.13618        33.00000
        35.16958        38.00000
        35.20298        41.00000
        35.23648        32.00000
        35.26987        45.00000
        35.30327        36.00000
        35.33667        35.00000
        35.37017        38.00000
        35.40357        31.00000
        35.43697        31.00000
        35.47037        38.00000
        35.50377        41.00000
        35.53727        38.00000
        35.57066        43.00000
        35.60406        31.00000
        35.63746        51.00000
        35.67096        42.00000
        35.70436        48.00000
        35.73776        31.00000
        35.77116        57.00000
        35.80466        45.00000
        35.83806        48.00000
        35.87145        45.00000
        35.90485        62.00000
        35.93825        76.00000
        35.97175        84.00000
        36.00515       104.00000
        36.03855       125.00000
        36.07195       180.00000
        36.10545       268.00000
        36.13885       395.00000
        36.17224       754.00000
        36.20564      1224.00000
        36.23904      1733.00000
        36.27254      1986.00000
        36.30594      1577.00000
        36.33934      1376.00000
        36.37273      1072.00000
        36.40623       626.00000
        36.43963       340.00000
        36.47303       198.00000
        36.50643       140.00000
        36.53983       104.00000
        36.57333        82.00000
        36.60673        57.00000
        36.64013        51.00000
        36.67353        46.00000
        36.70702        55.00000
        36.74042        54.00000
        36.77382        48.00000
        36.80722        36.00000
        36.84062        43.00000
        36.87412        33.00000
        36.90752        35.00000
        36.94091        40.00000
        36.97432        28.00000
        37.00781        37.00000
        37.04121        27.00000
        37.07461        32.00000
        37.10801        26.00000
        37.14151        30.00000
        37.17491        45.00000
        37.20831        28.00000
        37.24170        23.00000
        37.27510        35.00000
        37.30860        28.00000
        37.34200        31.00000
        37.37540        25.00000
        37.40880        36.00000
        37.44230        40.00000
        37.47570        22.00000
        37.50909        30.00000
        37.54249        32.00000
        37.57589        20.00000
        37.60939        23.00000
        37.64279        28.00000
        37.67619        25.00000
        37.70959        28.00000
        37.74308        27.00000
        37.77649        36.00000
        37.80988        23.00000
        37.84328        37.00000
        37.87668        31.00000
        37.91018        27.00000
        37.94358        18.00000
        37.97698        22.00000
        38.01038        33.00000
        38.04387        37.00000
        38.07727        23.00000
        38.11067        22.00000
        38.14407        23.00000
        38.17747        33.00000
        38.21097        30.00000
        38.24437        30.00000
        38.27777        28.00000
        38.31116        27.00000
        38.34466        25.00000
        38.37806        31.00000
        38.41146        38.00000
        38.44486        26.00000
        38.47836        15.00000
        38.51176        23.00000
        38.54515        17.00000
        38.57856        35.00000
        38.61195        26.00000
        38.64545        20.00000
        38.67885        21.00000
        38.71225        22.00000
        38.74565        21.00000
        38.77915        26.00000
        38.81255        22.00000
        38.84594        30.00000
        38.87934        32.00000
        38.91274        18.00000
        38.94624        23.00000
        38.97964        27.00000
        39.01304        17.00000
        39.04644        22.00000
        39.07994        31.00000
        39.11333        22.00000
        39.14673        32.00000
        39.18013        25.00000
        39.21353        18.00000
        39.24703        26.00000
        39.28043        25.00000
        39.31382        35.00000
        39.34723        25.00000
        39.38072        30.00000
        39.41412        27.00000
        39.44752        22.00000
        39.48092        25.00000
        39.51442        20.00000
        39.54782        23.00000
        39.58121        18.00000
        39.61461        25.00000
        39.64801        17.00000
        39.68151        23.00000
        39.71491        25.00000
        39.74831        20.00000
        39.78171        25.00000
        39.81520        22.00000
        39.84861        25.00000
        39.88200        25.00000
        39.91540        21.00000
        39.94880        18.00000
        39.98230        26.00000
        40.01570        26.00000
        40.04910        26.00000
        40.08250        12.00000
        40.11599        25.00000
        40.14939        25.00000
        40.18279        23.00000
        40.21619        31.00000
        40.24959        18.00000
        40.28308        15.00000
        40.31649        21.00000
        40.34988        20.00000
        40.38328        25.00000
        40.41678        25.00000
        40.45018        21.00000
        40.48358        23.00000
        40.51698        28.00000
        40.55038        27.00000
        40.58387        23.00000
        40.61728        21.00000
        40.65067        23.00000
        40.68407        26.00000
        40.71757        28.00000
        40.75097        21.00000
        40.78437        23.00000
        40.81777        17.00000
        40.85126        26.00000
        40.88466        23.00000
        40.91806        33.00000
        40.95146        17.00000
        40.98486        25.00000
        41.01836        22.00000
        41.05175        25.00000
        41.08516        25.00000
        41.11855        21.00000
        41.15205        23.00000
        41.18545        45.00000
        41.21885        28.00000
        41.25225        27.00000
        41.28565        25.00000
        41.31915        25.00000
        41.35254        37.00000
        41.38594        21.00000
        41.41934        37.00000
        41.45284        15.00000
        41.48624        23.00000
        41.51963        12.00000
        41.55304        30.00000
        41.58654        20.00000
        41.61993        23.00000
        41.65333        22.00000
        41.68673        15.00000
        41.72013        30.00000
        41.75363        27.00000
        41.78703        25.00000
        41.82042        28.00000
        41.85382        22.00000
        41.88732        18.00000
        41.92072        25.00000
        41.95412        20.00000
        41.98752        31.00000
        42.02092        20.00000
        42.05441        15.00000
        42.08781        27.00000
        42.12121        17.00000
        42.15461        26.00000
        42.18811        26.00000
        42.22151        27.00000
        42.25491        23.00000
        42.28831        25.00000
        42.32170        23.00000
        42.35520        20.00000
        42.38860        25.00000
        42.42200        37.00000
        42.45540        23.00000
        42.48890        22.00000
        42.52229        26.00000
        42.55569        16.00000
        42.58909        26.00000
        42.62249        30.00000
        42.65599        28.00000
        42.68939        26.00000
        42.72279        23.00000
        42.75619        21.00000
        42.78968        27.00000
        42.82308        28.00000
        42.85648        41.00000
        42.88988        18.00000
        42.92328        23.00000
        42.95678        26.00000
        42.99017        26.00000
        43.02357        31.00000
        43.05697        18.00000
        43.09047        28.00000
        43.12387        30.00000
        43.15727        38.00000
        43.19067        21.00000
        43.22417        27.00000
        43.25756        22.00000
        43.29096        17.00000
        43.32436        26.00000
        43.35776        21.00000
        43.39126        20.00000
        43.42466        28.00000
        43.45806        25.00000
        43.49146        30.00000
        43.52495        26.00000
        43.55835        28.00000
        43.59175        37.00000
        43.62515        26.00000
        43.65855        23.00000
        43.69204        21.00000
        43.72544        25.00000
        43.75884        20.00000
        43.79224        18.00000
        43.82574        23.00000
        43.85914        22.00000
        43.89254        23.00000
        43.92594        25.00000
        43.95933        20.00000
        43.99283        21.00000
        44.02623        22.00000
        44.05963        30.00000
        44.09303        20.00000
        44.12653        23.00000
        44.15992        31.00000
        44.19333        25.00000
        44.22672        23.00000
        44.26012        23.00000
        44.29362        17.00000
        44.32702        21.00000
        44.36042        16.00000
        44.39381        16.00000
        44.42731        37.00000
        44.46071        26.00000
        44.49411        21.00000
        44.52751        23.00000
        44.56100        33.00000
        44.59441        25.00000
        44.62781        23.00000
        44.66120        23.00000
        44.69460        28.00000
        44.72810        23.00000
        44.76150        18.00000
        44.79490        27.00000
        44.82830        22.00000
        44.86179        22.00000
        44.89519        13.00000
        44.92859        27.00000
        44.96199        28.00000
        44.99539        21.00000
        45.02889        18.00000
        45.06229        26.00000
        45.09568        23.00000
        45.12908        35.00000
        45.16258        12.00000
        45.19598        32.00000
        45.22938        16.00000
        45.26278        22.00000
        45.29628        37.00000
        45.32967        20.00000
        45.36307        27.00000
        45.39647        17.00000
        45.42987        36.00000
        45.46337        23.00000
        45.49677        31.00000
        45.53016        23.00000
        45.56356        21.00000
        45.59706        28.00000
        45.63046        25.00000
        45.66386        33.00000
        45.69726        21.00000
        45.73066        11.00000
        45.76415        21.00000
        45.79755        30.00000
        45.83095        28.00000
        45.86435        40.00000
        45.89785        20.00000
        45.93124        35.00000
        45.96465        23.00000
        45.99805        37.00000
        46.03144        33.00000
        46.06494        22.00000
        46.09834        30.00000
        46.13174        17.00000
        46.16514        22.00000
        46.19864        26.00000
        46.23203        23.00000
        46.26543        33.00000
        46.29883        25.00000
        46.33223        37.00000
        46.36573        17.00000
        46.39913        25.00000
        46.43252        36.00000
        46.46592        18.00000
        46.49942        28.00000
        46.53282        25.00000
        46.56622        25.00000
        46.59961        23.00000
        46.63301        21.00000
        46.66652        33.00000
        46.69991        41.00000
        46.73331        30.00000
        46.76671        17.00000
        46.80021        31.00000
        46.83361        26.00000
        46.86700        20.00000
        46.90040        32.00000
        46.93390        27.00000
        46.96730        37.00000
        47.00069        38.00000
        47.03410        30.00000
        47.06750        30.00000
        47.10099        40.00000
        47.13439        31.00000
        47.16779        28.00000
        47.20119        30.00000
        47.23469        43.00000
        47.26809        47.00000
        47.30148        40.00000
        47.33488        50.00000
        47.36828        65.00000
        47.40178        71.00000
        47.43518       118.00000
        47.46858       226.00000
        47.50197       335.00000
        47.53547       461.00000
        47.56887       398.00000
        47.60227       312.00000
        47.63567       256.00000
        47.66917       265.00000
        47.70256       187.00000
        47.73596       128.00000
        47.76936        75.00000
        47.80276        51.00000
        47.83626        42.00000
        47.86966        46.00000
        47.90305        40.00000
        47.93645        42.00000
        47.96996        33.00000
        48.00335        26.00000
        48.03675        38.00000
        48.07014        38.00000
        48.10355        33.00000
        48.13705        35.00000
        48.17044        32.00000
        48.20384        26.00000
        48.23724        45.00000
        48.27074        21.00000
        48.30413        27.00000
        48.33754        30.00000
        48.37093        28.00000
        48.40433        25.00000
        48.43783        30.00000
        48.47123        21.00000
        48.50463        20.00000
        48.53803        32.00000
        48.57152        31.00000
        48.60492        22.00000
        48.63832        25.00000
        48.67172        25.00000
        48.70512        31.00000
        48.73862        21.00000
        48.77201        21.00000
        48.80541        31.00000
        48.83881        20.00000
        48.87231        31.00000
        48.90571        31.00000
        48.93911        31.00000
        48.97250        21.00000
        49.00600        17.00000
        49.03940        22.00000
        49.07280        27.00000
        49.10620        23.00000
        49.13960        30.00000
        49.17310        28.00000
        49.20649        30.00000
        49.23989        30.00000
        49.27329        28.00000
        49.30679        16.00000
        49.34018        23.00000
        49.37358        31.00000
        49.40699        37.00000
        49.44038        27.00000
        49.47388        35.00000
        49.50728        23.00000
        49.54068        28.00000
        49.57407        37.00000
        49.60757        25.00000
        49.64097        25.00000
        49.67437        18.00000
        49.70777        32.00000
        49.74117        21.00000
        49.77467        28.00000
        49.80806        30.00000
        49.84146        27.00000
        49.87486        21.00000
        49.90836        20.00000
        49.94176        27.00000
        49.97515        32.00000
        50.00855        23.00000
        50.04205        20.00000
        50.07545        25.00000
        50.10885        20.00000
        50.14225        21.00000
        50.17565        22.00000
        50.20914        28.00000
        50.24254        32.00000
        50.27594        21.00000
        50.30934        22.00000
        50.34284        20.00000
        50.37624        18.00000
        50.40963        23.00000
        50.44303        21.00000
        50.47643        35.00000
        50.50993        23.00000
        50.54333        37.00000
        50.57673        31.00000
        50.61012        28.00000
        50.64362        23.00000
        50.67702        26.00000
        50.71042        28.00000
        50.74382        31.00000
        50.77722        25.00000
        50.81071        38.00000
        50.84411        26.00000
        50.87751        22.00000
        50.91091        20.00000
        50.94441        27.00000
        50.97781        20.00000
        51.01120        22.00000
        51.04460        26.00000
        51.07800        22.00000
        51.11150        28.00000
        51.14490        25.00000
        51.17830        20.00000
        51.21169        26.00000
        51.24519        17.00000
        51.27859        41.00000
        51.31199        27.00000
        51.34539        30.00000
        51.37889        26.00000
        51.41228        22.00000
        51.44568        18.00000
        51.47908        20.00000
        51.51248        31.00000
        51.54598        18.00000
        51.57938        21.00000
        51.61277        22.00000
        51.64618        25.00000
        51.67967        35.00000
        51.71307        21.00000
        51.74647        22.00000
        51.77987        28.00000
        51.81326        21.00000
        51.84676        26.00000
        51.88016        36.00000
        51.91356        30.00000
        51.94696        18.00000
        51.98045        23.00000
        52.01385        23.00000
        52.04725        18.00000
        52.08065        18.00000
        52.11405        26.00000
        52.14755        25.00000
        52.18094        16.00000
        52.21434        25.00000
        52.24775        15.00000
        52.28124        26.00000
        52.31464        21.00000
        52.34804        31.00000
        52.38144        15.00000
        52.41493        23.00000
        52.44833        22.00000
        52.48173        15.00000
        52.51513        31.00000
        52.54852        30.00000
        52.58202        30.00000
        52.61543        22.00000
        52.64882        21.00000
        52.68222        15.00000
        52.71572        40.00000
        52.74912        27.00000
        52.78251        25.00000
        52.81591        31.00000
        52.84931        26.00000
        52.88281        26.00000
        52.91621        23.00000
        52.94960        38.00000
        52.98301        27.00000
        53.01650        26.00000
        53.04990        23.00000
        53.08330        23.00000
        53.11670        26.00000
        53.15009        13.00000
        53.18359        18.00000
        53.21699        30.00000
        53.25039        27.00000
        53.28379        25.00000
        53.31729        30.00000
        53.35069        22.00000
        53.38408        26.00000
        53.41748        30.00000
        53.45088        23.00000
        53.48438        22.00000
        53.51778        21.00000
        53.55117        28.00000
        53.58457        32.00000
        53.61807        26.00000
        53.65147        32.00000
        53.68487        25.00000
        53.71827        32.00000
        53.75176        23.00000
        53.78516        36.00000
        53.81856        31.00000
        53.85196        25.00000
        53.88536        27.00000
        53.91886        21.00000
        53.95225        18.00000
        53.98565        26.00000
        54.01905        18.00000
        54.05255        22.00000
        54.08595        23.00000
        54.11934        28.00000
        54.15274        28.00000
        54.18614        21.00000
        54.21964        32.00000
        54.25304        23.00000
        54.28644        27.00000
        54.31983        20.00000
        54.35333        22.00000
        54.38673        33.00000
        54.42013        35.00000
        54.45353        18.00000
        54.48703        28.00000
        54.52042        28.00000
        54.55382        31.00000
        54.58722        28.00000
        54.62062        22.00000
        54.65412        32.00000
        54.68752        15.00000
        54.72091        31.00000
        54.75431        25.00000
        54.78771        32.00000
        54.82121        15.00000
        54.85461        22.00000
        54.88800        22.00000
        54.92140        36.00000
        54.95490        32.00000
        54.98830        25.00000
        55.02169        28.00000
        55.05510        22.00000
        55.08859        28.00000
        55.12199        27.00000
        55.15539        25.00000
        55.18879        27.00000
        55.22219        15.00000
        55.25568        33.00000
        55.28909        18.00000
        55.32248        28.00000
        55.35588        26.00000
        55.38938        11.00000
        55.42278        32.00000
        55.45617        25.00000
        55.48957        33.00000
        55.52297        41.00000
        55.55647        30.00000
        55.58986        25.00000
        55.62326        22.00000
        55.65666        30.00000
        55.69016        27.00000
        55.72356        25.00000
        55.75696        21.00000
        55.79036        26.00000
        55.82375        40.00000
        55.85725        35.00000
        55.89065        25.00000
        55.92405        33.00000
        55.95745        31.00000
        55.99094        35.00000
        56.02434        41.00000
        56.05774        31.00000
        56.09114        37.00000
        56.12464        32.00000
        56.15804        33.00000
        56.19143        35.00000
        56.22483        48.00000
        56.25823        35.00000
        56.29173        47.00000
        56.32513        46.00000
        56.35852        62.00000
        56.39192        75.00000
        56.42542        81.00000
        56.45882       111.00000
        56.49222       188.00000
        56.52562       281.00000
        56.55901       561.00000
        56.59251       628.00000
        56.62591       611.00000
        56.65931       417.00000
        56.69271       334.00000
        56.72620       396.00000
        56.75960       336.00000
        56.79300       236.00000
        56.82640       189.00000
        56.85979        92.00000
        56.89330        82.00000
        56.92669        59.00000
        56.96009        69.00000
        56.99349        32.00000
        57.02699        45.00000
        57.06038        35.00000
        57.09378        40.00000
        57.12718        41.00000
        57.16058        38.00000
        57.19408        27.00000
        57.22748        31.00000
        57.26087        40.00000
        57.29427        22.00000
        57.32777        36.00000
        57.36117        28.00000
        57.39457        42.00000
        57.42797        27.00000
        57.46146        31.00000
        57.49486        25.00000
        57.52826        23.00000
        57.56166        33.00000
        57.59505        30.00000
        57.62856        27.00000
        57.66195        33.00000
        57.69535        35.00000
        57.72875        32.00000
        57.76225        25.00000
        57.79565        25.00000
        57.82904        27.00000
        57.86244        30.00000
        57.89584        35.00000
        57.92934        28.00000
        57.96273        22.00000
        57.99614        26.00000
        58.02953        26.00000
        58.06303        25.00000
        58.09643        20.00000
        58.12983        35.00000
        58.16322        32.00000
        58.19672        27.00000
        58.23012        25.00000
        58.26352        36.00000
        58.29692        18.00000
        58.33031        18.00000
        58.36381        28.00000
        58.39721        26.00000
        58.43061        27.00000
        58.46401        26.00000
        58.49751        21.00000
        58.53090        22.00000
        58.56430        18.00000
        58.59770        28.00000
        58.63110        36.00000
        58.66460        32.00000
        58.69799        25.00000
        58.73139        25.00000
        58.76479        28.00000
        58.79829        31.00000
        58.83168        32.00000
        58.86509        30.00000
        58.89848        20.00000
        58.93188        25.00000
        58.96538        23.00000
        58.99878        22.00000
        59.03217        28.00000
        59.06557        26.00000
        59.09907        26.00000
        59.13247        21.00000
        59.16587        31.00000
        59.19926        33.00000
        59.23266        23.00000
        59.26616        30.00000
        59.29956        25.00000
        59.33296        35.00000
        59.36636        31.00000
        59.39986        26.00000
        59.43325        27.00000
        59.46665        31.00000
        59.50005        27.00000
        59.53345        23.00000
        59.56694        23.00000
        59.60034        21.00000
        59.63374        30.00000
        59.66714        23.00000
        59.70063        21.00000
        59.73404        23.00000
        59.76743        26.00000
        59.80083        23.00000
        59.83433        28.00000
        59.86773        25.00000
        59.90112        36.00000
        59.93452        36.00000
        59.96792        20.00000
        60.00142        27.00000
        60.03482        30.00000
        60.06822        22.00000
        60.10161        30.00000
        60.13511        31.00000
        60.16851        26.00000
        60.20191        25.00000
        60.23531        31.00000
        60.26870        18.00000
        60.30220        33.00000
        60.33560        25.00000
        60.36900        33.00000
        60.40239        25.00000
        60.43589        31.00000
        60.46929        27.00000
        60.50269        26.00000
        60.53609        30.00000
        60.56959        25.00000
        60.60298        33.00000
        60.63638        30.00000
        60.66978        37.00000
        60.70318        28.00000
        60.73668        18.00000
        60.77007        27.00000
        60.80347        22.00000
        60.83687        30.00000
        60.87027        42.00000
        60.90377        32.00000
        60.93716        25.00000
        60.97056        25.00000
        61.00396        31.00000
        61.03746        30.00000
        61.07085        22.00000
        61.10426        33.00000
        61.13765        30.00000
        61.17115        26.00000
        61.20455        30.00000
        61.23795        27.00000
        61.27134        28.00000
        61.30474        30.00000
        61.33824        25.00000
        61.37164        25.00000
        61.40504        27.00000
        61.43843        32.00000
        61.47193        26.00000
        61.50533        38.00000
        61.53873        18.00000
        61.57212        32.00000
        61.60553        36.00000
        61.63902        30.00000
        61.67242        35.00000
        61.70582        40.00000
        61.73922        23.00000
        61.77271        30.00000
        61.80611        26.00000
        61.83951        21.00000
        61.87291        23.00000
        61.90641        20.00000
        61.93980        25.00000
        61.97320        17.00000
        62.00660        40.00000
        62.04000        33.00000
        62.07350        38.00000
        62.10690        33.00000
        62.14029        37.00000
        62.17369        23.00000
        62.20719        27.00000
        62.24059        30.00000
        62.27398        26.00000
        62.30738        35.00000
        62.34078        32.00000
        62.37428        40.00000
        62.40768        32.00000
        62.44107        42.00000
        62.47447        33.00000
        62.50797        41.00000
        62.54137        51.00000
        62.57477        62.00000
        62.60817        45.00000
        62.64156        71.00000
        62.67506        86.00000
        62.70846       101.00000
        62.74186       159.00000
        62.77525       208.00000
        62.80875       389.00000
        62.84215       516.00000
        62.87555       567.00000
        62.90894       420.00000
        62.94244       322.00000
        62.97584       272.00000
        63.00924       291.00000
        63.04264       316.00000
        63.07604       229.00000
        63.10954       124.00000
        63.14293        90.00000
        63.17633        56.00000
        63.20973        47.00000
        63.24313        42.00000
        63.27663        46.00000
        63.31002        41.00000
        63.34342        30.00000
        63.37682        28.00000
        63.41031        32.00000
        63.44371        32.00000
        63.47711        25.00000
        63.51051        35.00000
        63.54401        28.00000
        63.57741        28.00000
        63.61080        22.00000
        63.64420        31.00000
        63.67760        26.00000
        63.71110        30.00000
        63.74450        30.00000
        63.77789        21.00000
        63.81129        40.00000
        63.84479        32.00000
        63.87819        38.00000
        63.91158        38.00000
        63.94498        27.00000
        63.97838        13.00000
        64.01188        21.00000
        64.04527        35.00000
        64.07867        33.00000
        64.11208        25.00000
        64.14557        21.00000
        64.17897        28.00000
        64.21237        23.00000
        64.24576        33.00000
        64.27926        21.00000
        64.31266        32.00000
        64.34606        33.00000
        64.37946        26.00000
        64.41286        25.00000
        64.44635        36.00000
        64.47975        26.00000
        64.51315        28.00000
        64.54655        20.00000
        64.58005        22.00000
        64.61344        23.00000
        64.64684        33.00000
        64.68024        32.00000
        64.71364        26.00000
        64.74713        30.00000
        64.78053        33.00000
        64.81393        28.00000
        64.84733        28.00000
        64.88082        28.00000
        64.91422        25.00000
        64.94762        30.00000
        64.98102        31.00000
        65.01452        27.00000
        65.04791        30.00000
        65.08131        22.00000
        65.11471        28.00000
        65.14811        38.00000
        65.18161        31.00000
        65.21500        36.00000
        65.24840        30.00000
        65.28180        18.00000
        65.31520        25.00000
        65.34869        22.00000
        65.38210        26.00000
        65.41549        30.00000
        65.44889        20.00000
        65.48238        31.00000
        65.51579        26.00000
        65.54919        17.00000
        65.58259        32.00000
        65.61607        33.00000
        65.64948        21.00000
        65.68288        25.00000
        65.71627        25.00000
        65.74967        23.00000
        65.78317        26.00000
        65.81657        28.00000
        65.84996        20.00000
        65.88336        37.00000
        65.91686        30.00000
        65.95026        40.00000
        65.98366        32.00000
        66.01705        35.00000
        66.05045        30.00000
        66.08395        30.00000
        66.11735        26.00000
        66.15075        40.00000
        66.18414        41.00000
        66.21764        30.00000
        66.25104        36.00000
        66.28444        69.00000
        66.31783        89.00000
        66.35123        85.00000
        66.38473       101.00000
        66.41813        77.00000
        66.45152        69.00000
        66.48492        60.00000
        66.51842        62.00000
        66.55183        86.00000
        66.58521        92.00000
        66.61861        51.00000
        66.65211        33.00000
        66.68551        38.00000
        66.71891        42.00000
        66.75231        21.00000
        66.78571        37.00000
        66.81920        32.00000
        66.85260        37.00000
        66.88600        30.00000
        66.91940        28.00000
        66.95290        32.00000
        66.98629        25.00000
        67.01969        32.00000
        67.05309        31.00000
        67.08649        32.00000
        67.11999        31.00000
        67.15338        23.00000
        67.18678        25.00000
        67.22018        46.00000
        67.25368        31.00000
        67.28707        28.00000
        67.32047        32.00000
        67.35387        33.00000
        67.38727        30.00000
        67.42076        32.00000
        67.45416        25.00000
        67.48756        30.00000
        67.52096        38.00000
        67.55446        31.00000
        67.58785        45.00000
        67.62125        40.00000
        67.65465        47.00000
        67.68805        51.00000
        67.72155        52.00000
        67.75494        71.00000
        67.78834        90.00000
        67.82174       128.00000
        67.85524       185.00000
        67.88863       306.00000
        67.92204       410.00000
        67.95543       467.00000
        67.98892       389.00000
        68.02232       234.00000
        68.05573       208.00000
        68.08913       231.00000
        68.12252       247.00000
        68.15601       209.00000
        68.18941       190.00000
        68.22281       108.00000
        68.25621        76.00000
        68.28971        50.00000
        68.32311        65.00000
        68.35650        36.00000
        68.38990        36.00000
        68.42330        32.00000
        68.45679        33.00000
        68.49020        28.00000
        68.52360        36.00000
        68.55699        35.00000
        68.59048        38.00000
        68.62389        38.00000
        68.65729        38.00000
        68.69068        35.00000
        68.72418        30.00000
        68.75758        40.00000
        68.79098        47.00000
        68.82437        46.00000
        68.85777        36.00000
        68.89127        62.00000
        68.92466        64.00000
        68.95806        67.00000
        68.99146        96.00000
        69.02496       136.00000
        69.05836       214.00000
        69.09176       200.00000
        69.12515       219.00000
        69.15855       126.00000
        69.19205       123.00000
        69.22545       125.00000
        69.25885       111.00000
        69.29224       116.00000
        69.32574       125.00000
        69.35914        80.00000
        69.39253        45.00000
        69.42593        52.00000
        69.45934        31.00000
        69.49283        37.00000
        69.52622        37.00000
        69.55962        30.00000
        69.59303        21.00000
        69.62652        30.00000
        69.65992        31.00000
        69.69332        21.00000
        69.72671        20.00000
        69.76011        22.00000
        69.79361        22.00000
        69.82701        33.00000
        69.86040        27.00000
        69.89380        32.00000
        69.92730        22.00000
        69.96069        20.00000
        69.99409        26.00000
        70.02750        18.00000
        70.06090        28.00000
        70.09439        33.00000
        70.12778        31.00000
        70.16119        30.00000
        70.19458        27.00000
        70.22808        25.00000
        70.26148        30.00000
        70.29488        21.00000
        70.32827        30.00000
        70.36177        32.00000
        70.39517        18.00000
        70.42857        25.00000
        70.46197        28.00000
        70.49536        22.00000
        70.52885        26.00000
        70.56226        23.00000
        70.59566        23.00000
        70.62906        27.00000
        70.66255        30.00000
        70.69595        37.00000
        70.72935        35.00000
        70.76274        22.00000
        70.79614        21.00000
        70.82964        33.00000
        70.86304        25.00000
        70.89643        25.00000
        70.92983        17.00000
        70.96333        38.00000
        70.99673        22.00000
        71.03013        27.00000
        71.06352        23.00000
        71.09702        18.00000
        71.13042        27.00000
        71.16382        35.00000
        71.19722        27.00000
        71.23061        23.00000
        71.26411        22.00000
        71.29751        25.00000
        71.33090        13.00000
        71.36430        26.00000
        71.39780        21.00000
        71.43120        28.00000
        71.46459        27.00000
        71.49799        21.00000
        71.53139        23.00000
        71.56489        23.00000
        71.59829        27.00000
        71.63169        21.00000
        71.66508        20.00000
        71.69858        28.00000
        71.73198        22.00000
        71.76538        26.00000
        71.79877        20.00000
        71.83218        28.00000
        71.86567        23.00000
        71.89906        26.00000
        71.93246        18.00000
        71.96587        31.00000
        71.99936        16.00000
        72.03276        22.00000
        72.06615        31.00000
        72.09956        26.00000
        72.13295        18.00000
        72.16645        18.00000
        72.19985        17.00000
        72.23325        32.00000
        72.26664        20.00000
        72.30014        26.00000
        72.33353        22.00000
        72.36694        33.00000
        72.40034        43.00000
        72.43373        32.00000
        72.46722        31.00000
        72.50063        30.00000
        72.53403        45.00000
        72.56742        51.00000
        72.60092        52.00000
        72.63432        41.00000
        72.66771        32.00000
        72.70111        42.00000
        72.73461        48.00000
        72.76801        36.00000
        72.80141        54.00000
        72.83480        46.00000
        72.86820        38.00000
        72.90170        20.00000
        72.93510        20.00000
        72.96850        27.00000
        73.00189        32.00000
        73.03539        21.00000
        73.06879        27.00000
        73.10219        30.00000
        73.13558        23.00000
        73.16898        27.00000
        73.20248        23.00000
        73.23587        27.00000
        73.26927        27.00000
        73.30267        28.00000
        73.33617        22.00000
        73.36957        22.00000
        73.40297        25.00000
        73.43636        30.00000
        73.46986        25.00000
        73.50326        25.00000
        73.53666        23.00000
        73.57005        18.00000
        73.60345        32.00000
        73.63695        18.00000
        73.67034        25.00000
        73.70374        21.00000
        73.73714        22.00000
        73.77054        28.00000
        73.80404        30.00000
        73.83743        27.00000
        73.87083        20.00000
        73.90423        18.00000
        73.93773        35.00000
        73.97113        30.00000
        74.00452        31.00000
        74.03792        25.00000
        74.07142        21.00000
        74.10481        33.00000
        74.13821        15.00000
        74.17162        18.00000
        74.20500        21.00000
        74.23850        21.00000
        74.27190        36.00000
        74.30531        22.00000
        74.33870        18.00000
        74.37220        32.00000
        74.40559        27.00000
        74.43899        31.00000
        74.47239        23.00000
        74.50579        35.00000
        74.53928        20.00000
        74.57269        13.00000
        74.60608        25.00000
        74.63947        18.00000
        74.67297        23.00000
        74.70638        36.00000
        74.73978        27.00000
        74.77317        22.00000
        74.80666        28.00000
        74.84007        27.00000
        74.87346        33.00000
        74.90686        30.00000
        74.94026        21.00000
        74.97375        27.00000
        75.00715        35.00000
        75.04055        28.00000
        75.07394        20.00000
        75.10744        30.00000
        75.14085        30.00000
        75.17424        23.00000
        75.20763        28.00000
        75.24104        22.00000
        75.27454        23.00000
        75.30793        15.00000
        75.34133        25.00000
        75.37473        33.00000
        75.40822        27.00000
        75.44162        31.00000
        75.47502        26.00000
        75.50842        18.00000
        75.54182        17.00000
        75.57531        15.00000
        75.60870        26.00000
        75.64211        18.00000
        75.67551        31.00000
        75.70901        25.00000
        75.74240        25.00000
        75.77579        20.00000
        75.80920        26.00000
        75.84259        23.00000
        75.87609        26.00000
        75.90949        25.00000
        75.94289        26.00000
        75.97628        28.00000
        76.00978        25.00000
        76.04317        28.00000
        76.07658        27.00000
        76.10998        17.00000
        76.14336        25.00000
        76.17686        23.00000
        76.21027        32.00000
        76.24367        25.00000
        76.27706        21.00000
        76.31056        33.00000
        76.34396        25.00000
        76.37735        22.00000
        76.41075        21.00000
        76.44425        25.00000
        76.47765        31.00000
        76.51105        22.00000
        76.54444        21.00000
        76.57784        26.00000
        76.61134        35.00000
        76.64474        21.00000
        76.67813        33.00000
        76.71153        26.00000
        76.74503        32.00000
        76.77842        20.00000
        76.81182        35.00000
        76.84522        46.00000
        76.87862        55.00000
        76.91212        84.00000
        76.94551        76.00000
        76.97891        66.00000
        77.01231        77.00000
        77.04581        45.00000
        77.07921        48.00000
        77.11260        59.00000
        77.14600        42.00000
        77.17950        71.00000
        77.21289        50.00000
        77.24629        51.00000
        77.27969        45.00000
        77.31308        35.00000
        77.34658        31.00000
        77.37998        31.00000
        77.41338        37.00000
        77.44678        37.00000
        77.48028        23.00000
        77.51368        28.00000
        77.54707        30.00000
        77.58047        28.00000
        77.61387        32.00000
        77.64736        16.00000
        77.68076        17.00000
        77.71416        26.00000
        77.74755        35.00000
        77.78105        41.00000
        77.81445        32.00000
        77.84785        27.00000
        77.88125        22.00000
        77.91464        22.00000
        77.94814        12.00000
        77.98154        23.00000
        78.01494        23.00000
        78.04833        22.00000
        78.08183        40.00000
        78.11523        21.00000
        78.14862        16.00000
        78.18202        20.00000
        78.21542        18.00000
        78.24892        21.00000
        78.28232        26.00000
        78.31571        23.00000
        78.34911        18.00000
        78.38261        30.00000
        78.41601        21.00000
        78.44941        27.00000
        78.48280        20.00000
        78.51630        27.00000
        78.54970        11.00000
        78.58309        18.00000
        78.61649        15.00000
        78.64989        17.00000
        78.68339        27.00000
        78.71678        26.00000
        78.75018        33.00000
        78.78358        26.00000
        78.81708        25.00000
        78.85048        28.00000
        78.88387        37.00000
        78.91727        26.00000
        78.95067        28.00000
        78.98416        11.00000
        79.01756        22.00000
        79.05096        32.00000
        79.08435        21.00000
        79.11785        21.00000
        79.15125        31.00000
        79.18465        21.00000
        79.21805        23.00000
        79.25145        25.00000
        79.28493        35.00000
        79.31834        32.00000
        79.35174        26.00000
        79.38514        12.00000
        79.41863        20.00000
        79.45203        21.00000
        79.48543        16.00000
        79.51882        25.00000
        79.55232        25.00000
        79.58572        38.00000
        79.61912        20.00000
        79.65252        26.00000
        79.68591        21.00000
        79.71941        35.00000
        79.75281        40.00000
        79.78621        30.00000
        79.81960        21.00000
        79.85300        17.00000
        79.88650        23.00000
        79.91989        16.00000
        79.95329        30.00000
        79.98669        25.00000
        80.02019        33.00000
        80.05359        28.00000
        80.08698        23.00000
        80.12038        21.00000
        80.15388        32.00000
        80.18728        18.00000
        80.22067        25.00000
        80.25407        26.00000
        80.28747        30.00000
        80.32096        26.00000
        80.35436        26.00000
        80.38776        25.00000
        80.42116        27.00000
        80.45466        37.00000
        80.48805        20.00000
        80.52145        26.00000
        80.55485        25.00000
        80.58825        23.00000
        80.62174        26.00000
        80.65514        40.00000
        80.68854        20.00000
        80.72193        31.00000
        80.75543        35.00000
        80.78883        23.00000
        80.82223        25.00000
        80.85562        28.00000
        80.88912        25.00000
        80.92252        30.00000
        80.95592        22.00000
        80.98932        17.00000
        81.02271        28.00000
        81.05621        20.00000
        81.08961        22.00000
        81.12300        28.00000
        81.15640        28.00000
        81.18990        30.00000
        81.22330        32.00000
        81.25669        50.00000
        81.29009        48.00000
        81.32349        62.00000
        81.35699        41.00000
        81.39039        45.00000
        81.42377        45.00000
        81.45718        46.00000
        81.49068        31.00000
        81.52407        17.00000
        81.55747        36.00000
        81.59087        30.00000
        81.62437        47.00000
        81.65776        47.00000
        81.69116        38.00000
        81.72456        31.00000
        81.75796        28.00000
        81.79146        25.00000
        81.82484        16.00000
        81.85825        30.00000
        81.89165        30.00000
        81.92515        21.00000
        81.95854        26.00000
        81.99194        21.00000
        82.02534        22.00000
        82.05873        27.00000
        82.09223        27.00000
        82.12563        23.00000
        82.15903        21.00000
        82.19243        27.00000
        82.22591        30.00000
        82.25932        22.00000
        82.29272        16.00000
        82.32611        28.00000
        82.35951        26.00000
        82.39301        26.00000
        82.42640        23.00000
        82.45980        27.00000
        82.49320        32.00000
        82.52670        27.00000
        82.56010        15.00000
        82.59350        28.00000
        82.62688        25.00000
        82.66029        26.00000
        82.69379        33.00000
        82.72718        28.00000
        82.76058        28.00000
        82.79398        18.00000
        82.82747        26.00000
        82.86087        20.00000
        82.89427        27.00000
        82.92767        23.00000
        82.96107        30.00000
        82.99456        23.00000
        83.02795        30.00000
        83.06136        26.00000
        83.09476        28.00000
        83.12825        32.00000
        83.16165        26.00000
        83.19505        27.00000
        83.22844        11.00000
        83.26194        27.00000
        83.29534        28.00000
        83.32874        37.00000
        83.36214        22.00000
        83.39553        28.00000
        83.42902        22.00000
        83.46243        37.00000
        83.49583        25.00000
        83.52922        23.00000
        83.56272        28.00000
        83.59612        23.00000
        83.62951        26.00000
        83.66291        23.00000
        83.69631        25.00000
        83.72980        22.00000
        83.76321        25.00000
        83.79660        28.00000
        83.82999        25.00000
        83.86349        31.00000
        83.89690        21.00000
        83.93029        36.00000
        83.96368        33.00000
        83.99718        23.00000
        84.03058        37.00000
        84.06398        27.00000
        84.09738        22.00000
        84.13078        23.00000
        84.16428        27.00000
        84.19767        27.00000
        84.23106        28.00000
        84.26447        23.00000
        84.29787        31.00000
        84.33136        25.00000
        84.36475        21.00000
        84.39816        30.00000
        84.43155        23.00000
        84.46505        23.00000
        84.49845        25.00000
        84.53185        16.00000
        84.56524        25.00000
        84.59873        18.00000
        84.63213        22.00000
        84.66553        38.00000
        84.69893        25.00000
        84.73233        25.00000
        84.76582        31.00000
        84.79922        16.00000
        84.83262        35.00000
        84.86602        28.00000
        84.89951        22.00000
        84.93291        17.00000
        84.96631        32.00000
        84.99970        36.00000
        85.03310        17.00000
        85.06660        16.00000
        85.10000        28.00000
        85.13339        31.00000
        85.16679        25.00000
        85.20029        35.00000
        85.23369        27.00000
        85.26709        20.00000
        85.30048        30.00000
        85.33398        23.00000
        85.36738        35.00000
        85.40077        18.00000
        85.43417        32.00000
        85.46758        30.00000
        85.50107        18.00000
        85.53446        20.00000
        85.56786        22.00000
        85.60126        36.00000
        85.63476        28.00000
        85.66815        20.00000
        85.70155        26.00000
        85.73495        31.00000
        85.76834        33.00000
        85.80184        18.00000
        85.83524        28.00000
        85.86864        27.00000
        85.90204        22.00000
        85.93553        20.00000
        85.96893        22.00000
        86.00233        20.00000
        86.03573        31.00000
        86.06912        38.00000
        86.10262        37.00000
        86.13602        11.00000
        86.16941        26.00000
        86.20281        23.00000
        86.23631        17.00000
        86.26971        32.00000
        86.30311        16.00000
        86.33650        17.00000
        86.36990        32.00000
        86.40340        20.00000
        86.43679        26.00000
        86.47019        16.00000
        86.50359        21.00000
        86.53708        28.00000
        86.57048        31.00000
        86.60388        21.00000
        86.63728        30.00000
        86.67068        31.00000
        86.70418        21.00000
        86.73756        27.00000
        86.77097        23.00000
        86.80437        17.00000
        86.83786        28.00000
        86.87126        26.00000
        86.90466        35.00000
        86.93805        21.00000
        86.97155        22.00000
        87.00495        22.00000
        87.03835        20.00000
        87.07175        15.00000
        87.10514        35.00000
        87.13863        22.00000
        87.17204        36.00000
        87.20543        13.00000
        87.23883        25.00000
        87.27233        20.00000
        87.30572        21.00000
        87.33912        25.00000
        87.37252        30.00000
        87.40591        18.00000
        87.43941        33.00000
        87.47282        27.00000
        87.50620        30.00000
        87.53960        17.00000
        87.57310        31.00000
        87.60650        17.00000
        87.63990        21.00000
        87.67329        22.00000
        87.70679        11.00000
        87.74019        20.00000
        87.77358        32.00000
        87.80698        18.00000
        87.84039        32.00000
        87.87388        50.00000
        87.90727        20.00000
        87.94067        22.00000
        87.97407        30.00000
        88.00747        32.00000
        88.04097        28.00000
        88.07436        31.00000
        88.10776        32.00000
        88.14116        20.00000
        88.17465        31.00000
        88.20805        23.00000
        88.24146        25.00000
        88.27484        25.00000
        88.30834        33.00000
        88.34174        17.00000
        88.37514        27.00000
        88.40854        22.00000
        88.44193        26.00000
        88.47543        38.00000
        88.50883        20.00000
        88.54222        27.00000
        88.57562        36.00000
        88.60912        31.00000
        88.64252        22.00000
        88.67591        27.00000
        88.70931        26.00000
        88.74271        28.00000
        88.77621        16.00000
        88.80961        26.00000
        88.84300        32.00000
        88.87640        22.00000
        88.90989        37.00000
        88.94329        38.00000
        88.97669        23.00000
        89.01009        28.00000
        89.04348        36.00000
        89.07698        32.00000
        89.11037        28.00000
        89.14378        21.00000
        89.17718        30.00000
        89.21067        33.00000
        89.24406        17.00000
        89.27747        23.00000
        89.31086        21.00000
        89.34436        32.00000
        89.37775        46.00000
        89.41116        45.00000
        89.44455        51.00000
        89.47794        51.00000
        89.51144        87.00000
        89.54485       101.00000
        89.57824       146.00000
        89.61164       163.00000
        89.64513       123.00000
        89.67853        95.00000
        89.71193        85.00000
        89.74533        65.00000
        89.77872        47.00000
        89.81223        70.00000
        89.84561       108.00000
        89.87901        91.00000
        89.91241       101.00000
        89.94591        79.00000
        89.97931        57.00000
        90.01271        43.00000
        90.04610        32.00000
        90.07950        33.00000
        90.11300        20.00000
        90.14639        37.00000
        90.17979        32.00000
        90.21318        32.00000
        90.24668        22.00000
        90.28008        28.00000
        90.31348        30.00000
        90.34688        30.00000
        90.38028        28.00000
        90.41377        27.00000
        90.44717        22.00000
        90.48057        27.00000
        90.51396        41.00000
        90.54746        18.00000
        90.58086        23.00000
        90.61425        21.00000
        90.64765        25.00000
        90.68114        25.00000
        90.71455        37.00000
        90.74795        32.00000
        90.78134        27.00000
        90.81474        26.00000
        90.84824        18.00000
        90.88163        32.00000
        90.91503        26.00000
        90.94843        27.00000
        90.98193        23.00000
        91.01532        23.00000
        91.04871        20.00000
        91.08212        16.00000
        91.11552        33.00000
        91.14901        25.00000
        91.18241        28.00000
        91.21581        32.00000
        91.24920        26.00000
        91.28270        28.00000
        91.31610        31.00000
        91.34949        25.00000
        91.38289        17.00000
        91.41638        22.00000
        91.44978        25.00000
        91.48318        31.00000
        91.51658        28.00000
        91.54998        21.00000
        91.58348        36.00000
        91.61687        26.00000
        91.65027        28.00000
        91.68367        28.00000
        91.71716        25.00000
        91.75056        22.00000
        91.78395        33.00000
        91.81735        33.00000
        91.85075        22.00000
        91.88425        27.00000
        91.91765        18.00000
        91.95105        35.00000
        91.98444        23.00000
        92.01794        25.00000
        92.05134        23.00000
        92.08473        33.00000
        92.11813        36.00000
        92.15153        30.00000
        92.18502        17.00000
        92.21842        26.00000
        92.25182        28.00000
        92.28522        27.00000
        92.31872        25.00000
        92.35211        27.00000
        92.38551        37.00000
        92.41890        27.00000
        92.45230        22.00000
        92.48580        31.00000
        92.51920        25.00000
        92.55260        31.00000
        92.58599        28.00000
        92.61948        32.00000
        92.65289        31.00000
        92.68629        38.00000
        92.71968        48.00000
        92.75307        77.00000
        92.78657        66.00000
        92.81997        43.00000
        92.85337        60.00000
        92.88676        37.00000
        92.92027        41.00000
        92.95367        47.00000
        92.98705        33.00000
        93.02045        41.00000
        93.05395        51.00000
        93.08735        50.00000
        93.12075        45.00000
        93.15414        37.00000
        93.18754        43.00000
        93.22104        23.00000
        93.25443        36.00000
        93.28783        30.00000
        93.32124        23.00000
        93.35472        26.00000
        93.38812        26.00000
        93.42152        25.00000
        93.45492        36.00000
        93.48832        27.00000
        93.52181        16.00000
        93.55521        22.00000
        93.58861        30.00000
        93.62200        27.00000
        93.65550        27.00000
        93.68890        22.00000
        93.72230        28.00000
        93.75569        27.00000
        93.78918        25.00000
        93.82259        40.00000
        93.85599        27.00000
        93.88938        30.00000
        93.92278        20.00000
        93.95627        31.00000
        93.98967        35.00000
        94.02307        20.00000
        94.05647        30.00000
        94.08987        35.00000
        94.12337        31.00000
        94.15675        25.00000
        94.19016        30.00000
        94.22356        27.00000
        94.25705        32.00000
        94.29045        30.00000
        94.32384        26.00000
        94.35724        26.00000
        94.39074        28.00000
        94.42413        27.00000
        94.45753        21.00000
        94.49094        27.00000
        94.52432        23.00000
        94.55782        22.00000
        94.59122        30.00000
        94.62462        21.00000
        94.65802        30.00000
        94.69151        31.00000
        94.72491        16.00000
        94.75831        26.00000
        94.79170        26.00000
        94.82510        21.00000
        94.85860        31.00000
        94.89200        25.00000
        94.92539        48.00000
        94.95879        33.00000
        94.99229        28.00000
        95.02569        38.00000
        95.05908        30.00000
        95.09248        37.00000
        95.12597        45.00000
        95.15937        46.00000
        95.19277        84.00000
        95.22617       114.00000
        95.25957       130.00000
        95.29307       167.00000
        95.32645       159.00000
        95.35986       135.00000
        95.39325        79.00000
        95.42675        75.00000
        95.46015        55.00000
        95.49354        50.00000
        95.52694        65.00000
        95.56034        72.00000
        95.59383        80.00000
        95.62724        80.00000
        95.66063        85.00000
        95.69402        70.00000
        95.72752        48.00000
        95.76092        51.00000
        95.79432        41.00000
        95.82772        37.00000
        95.86111        41.00000
        95.89461        42.00000
        95.92800        37.00000
        95.96140        26.00000
        95.99480        35.00000
        96.02830        26.00000
        96.06170        36.00000
        96.09509        25.00000
        96.12849        23.00000
        96.16199        20.00000
        96.19538        35.00000
        96.22878        27.00000
        96.26218        35.00000
        96.29557        23.00000
        96.32907        26.00000
        96.36246        25.00000
        96.39587        25.00000
        96.42927        27.00000
        96.46265        21.00000
        96.49615        21.00000
        96.52956        23.00000
        96.56295        28.00000
        96.59635        25.00000
        96.62984        30.00000
        96.66325        28.00000
        96.69664        27.00000
        96.73003        21.00000
        96.76353        22.00000
        96.79694        20.00000
        96.83033        27.00000
        96.86372        25.00000
        96.89712        27.00000
        96.93062        16.00000
        96.96402        22.00000
        96.99741        30.00000
        97.03082        17.00000
        97.06430        18.00000
        97.09770        22.00000
        97.13110        37.00000
        97.16450        27.00000
        97.19790        21.00000
        97.23140        20.00000
        97.26479        25.00000
        97.29819        27.00000
        97.33158        25.00000
        97.36508        27.00000
        97.39848        25.00000
        97.43188        18.00000
        97.46527        25.00000
        97.49877        22.00000
        97.53217        32.00000
        97.56557        23.00000
        97.59896        30.00000
        97.63235        22.00000
        97.66586        22.00000
        97.69925        23.00000
        97.73265        32.00000
        97.76604        37.00000
        97.79955        23.00000
        97.83295        28.00000
        97.86633        28.00000
        97.89973        27.00000
        97.93314        33.00000
        97.96663        26.00000
        98.00003        26.00000
        98.03342        31.00000
        98.06682        23.00000
        98.10032        20.00000
        98.13371        33.00000
        98.16711        16.00000
        98.20051        16.00000
        98.23401        25.00000
        98.26740        30.00000
        98.30080        32.00000
        98.33420        27.00000
        98.36760        28.00000
        98.40109        33.00000
        98.43449        40.00000
        98.46788        50.00000
        98.50128        50.00000
        98.53468        62.00000
        98.56818        70.00000
        98.60158       100.00000
        98.63496        90.00000
        98.66837        66.00000
        98.70187        69.00000
        98.73526        38.00000
        98.76866        52.00000
        98.80206        51.00000
        98.83555        38.00000
        98.86895        47.00000
        98.90234        54.00000
        98.93575        71.00000
        98.96915        42.00000
        99.00264        46.00000
        99.03603        48.00000
        99.06943        40.00000
        99.10283        25.00000
        99.13633        42.00000
        99.16972        30.00000
        99.20313        36.00000
        99.23652        17.00000
        99.26991        32.00000
        99.30341        23.00000
        99.33681        25.00000
        99.37021        25.00000
        99.40360        32.00000
        99.43710        17.00000
        99.47050        27.00000
        99.50389        15.00000
        99.53729        33.00000
        99.57069        27.00000
        99.60418        21.00000
        99.63758        20.00000
        99.67097        12.00000
        99.70438        23.00000
        99.73788        33.00000
        99.77127        26.00000
        99.80466        25.00000
        99.83807        22.00000
        99.87156        33.00000
        99.90496        20.00000
        99.93835        21.00000
        99.97176        30.00000
       100.00515        27.00000
       100.03864        18.00000
       100.07204        20.00000
       100.10544        32.00000
       100.13884        16.00000
       100.17234        26.00000
       100.20573        27.00000
       100.23913        23.00000
       100.27252        35.00000
       100.30592        30.00000
       100.33942        22.00000
       100.37282        22.00000
       100.40621        30.00000
       100.43961        36.00000
       100.47311        31.00000
       100.50651        22.00000
       100.53990        27.00000
       100.57330        20.00000
       100.60670        20.00000
       100.64019        23.00000
       100.67359        27.00000
       100.70699        27.00000
       100.74039        20.00000
       100.77389        26.00000
       100.80727        37.00000
       100.84068        32.00000
       100.87407        31.00000
       100.90747        23.00000
       100.94097        28.00000
       100.97436        20.00000
       101.00776        25.00000
       101.04115        38.00000
       101.07465        27.00000
       101.10806        28.00000
       101.14145        20.00000
       101.17484        30.00000
       101.20834        30.00000
       101.24174        17.00000
       101.27514        26.00000
       101.30853        33.00000
       101.34193        25.00000
       101.37543        30.00000
       101.40882        18.00000
       101.44222        25.00000
       101.47562        25.00000
       101.50912        27.00000
       101.54252        42.00000
       101.57590        38.00000
       101.60931        35.00000
       101.64270        43.00000
       101.67620        40.00000
       101.70960        31.00000
       101.74299        32.00000
       101.77639        26.00000
       101.80988        22.00000
       101.84328        21.00000
       101.87669        22.00000
       101.91008        31.00000
       101.94358        36.00000
       101.97697        15.00000
       102.01037        25.00000
       102.04377        31.00000
       102.07716        20.00000
       102.11066        32.00000
       102.14405        37.00000
       102.17745        25.00000
       102.21085        32.00000
       102.24435        25.00000
       102.27775        30.00000
       102.31114        36.00000
       102.34454        33.00000
       102.37794        26.00000
       102.41143        35.00000
       102.44483        17.00000
       102.47823        21.00000
       102.51163        28.00000
       102.54512        28.00000
       102.57851        13.00000
       102.61192        35.00000
       102.64532        36.00000
       102.67871        31.00000
       102.71221        46.00000
       102.74560        28.00000
       102.77900        31.00000
       102.81240        31.00000
       102.84589        56.00000
       102.87930        80.00000
       102.91269        75.00000
       102.94608        74.00000
       102.97948        65.00000
       103.01298        54.00000
       103.04638        47.00000
       103.07977        31.00000
       103.11317        26.00000
       103.14667        33.00000
       103.18006        43.00000
       103.21346        37.00000
       103.24686        50.00000
       103.28026        60.00000
       103.31375        48.00000
       103.34715        56.00000
       103.38055        42.00000
       103.41394        36.00000
       103.44744        33.00000
       103.48084        36.00000
       103.51423        40.00000
       103.54763        22.00000
       103.58112        26.00000
       103.61452        32.00000
       103.64793        28.00000
       103.68132        31.00000
       103.71471        31.00000
       103.74821        31.00000
       103.78161        41.00000
       103.81501        31.00000
       103.84840        27.00000
       103.88190        27.00000
       103.91529        32.00000
       103.94869        41.00000
       103.98209        50.00000
       104.01549        60.00000
       104.04899        95.00000
       104.08238       113.00000
       104.11578       120.00000
       104.14918        84.00000
       104.18267       111.00000
       104.21607        62.00000
       104.24947        62.00000
       104.28286        48.00000
       104.31636        56.00000
       104.34975        51.00000
       104.38316        42.00000
       104.41655        60.00000
       104.44995        72.00000
       104.48345        69.00000
       104.51684        64.00000
       104.55024        46.00000
       104.58363        47.00000
       104.61703        30.00000
       104.65054        28.00000
       104.68392        32.00000
       104.71732        30.00000
       104.75072        31.00000
       104.78422        17.00000
       104.81762        20.00000
       104.85101        35.00000
       104.88441        36.00000
       104.91790        31.00000
       104.95130        27.00000
       104.98470        26.00000
       105.01810        33.00000
       105.05150        21.00000
       105.08498        17.00000
       105.11839        22.00000
       105.15178        25.00000
       105.18518        27.00000
       105.21868        23.00000
       105.25208        26.00000
       105.28547        23.00000
       105.31886        32.00000
       105.35226        22.00000
       105.38577        31.00000
       105.41916        36.00000
       105.45256        25.00000
       105.48595        35.00000
       105.51945        26.00000
       105.55285        23.00000
       105.58624        28.00000
       105.61964        26.00000
       105.65314        31.00000
       105.68653        38.00000
       105.71993        26.00000
       105.75333        21.00000
       105.78673        26.00000
       105.82022        23.00000
       105.85361        23.00000
       105.88702        26.00000
       105.92041        30.00000
       105.95391        18.00000
       105.98730        21.00000
       106.02071        23.00000
       106.05410        22.00000
       106.08749        22.00000
       106.12099        31.00000
       106.15439        23.00000
       106.18779        25.00000
       106.22119        31.00000
       106.25468        31.00000
       106.28808        21.00000
       106.32147        27.00000
       106.35487        28.00000
       106.38827        23.00000
       106.42177        27.00000
       106.45516        32.00000
       106.48856        27.00000
       106.52196        38.00000
       106.55545        31.00000
       106.58885        25.00000
       106.62225        28.00000
       106.65564        31.00000
       106.68914        35.00000
       106.72253        38.00000
       106.75594        20.00000
       106.78934        27.00000
       106.82272        16.00000
       106.85622        26.00000
       106.88962        32.00000
       106.92302        23.00000
       106.95642        30.00000
       106.98981        28.00000
       107.02332        37.00000
       107.05670        25.00000
       107.09010        22.00000
       107.12350        40.00000
       107.15700        23.00000
       107.19040        30.00000
       107.22379        20.00000
       107.25719        30.00000
       107.29068        31.00000
       107.32408        41.00000
       107.35748        47.00000
       107.39088        33.00000
       107.42427        38.00000
       107.45776        41.00000
       107.49117        37.00000
       107.52457        32.00000
       107.55796        33.00000
       107.59146        36.00000
       107.62485        35.00000
       107.65825        21.00000
       107.69165        26.00000
       107.72504        28.00000
       107.75854        50.00000
       107.79194        38.00000
       107.82533        35.00000
       107.85873        42.00000
       107.89223        41.00000
       107.92563        26.00000
       107.95902        43.00000
       107.99242        13.00000
       108.02591        41.00000
       108.05931        36.00000
       108.09271        27.00000
       108.12611        23.00000
       108.15951        27.00000
       108.19300        32.00000
       108.22639        28.00000
       108.25980        27.00000
       108.29319        30.00000
       108.32669        18.00000
       108.36008        30.00000
       108.39348        28.00000
       108.42687        20.00000
       108.46027        23.00000
       108.49377        20.00000
       108.52717        22.00000
       108.56057        27.00000
       108.59396        26.00000
       108.62746        25.00000
       108.66086        26.00000
       108.69425        16.00000
       108.72765        30.00000
       108.76105        35.00000
       108.79454        31.00000
       108.82794        21.00000
       108.86134        23.00000
       108.89474        20.00000
       108.92823        23.00000
       108.96163        32.00000
       108.99502        25.00000
       109.02842        23.00000
       109.06182        35.00000
       109.09531        31.00000
       109.12872        31.00000
       109.16211        30.00000
       109.19550        25.00000
       109.22900        30.00000
       109.26240        27.00000
       109.29580        28.00000
       109.32919        17.00000
       109.36259        25.00000
       109.39608        37.00000
       109.42948        21.00000
       109.46288        23.00000
       109.49628        25.00000
       109.52978        20.00000
       109.56316        27.00000
       109.59657        22.00000
       109.62997        31.00000
       109.66346        21.00000
       109.69686        31.00000
       109.73026        22.00000
       109.76365        27.00000
       109.79705        30.00000
       109.83054        25.00000
       109.86395        36.00000
       109.89734        31.00000
       109.93074        26.00000
       109.96423        22.00000
       109.99763        32.00000
       110.03103        20.00000
       110.06442        45.00000
       110.09782        25.00000
       110.13132        27.00000
       110.16471        28.00000
       110.19811        36.00000
       110.23151        31.00000
       110.26501        41.00000
       110.29840        61.00000
       110.33180        80.00000
       110.36519        86.00000
       110.39869        85.00000
       110.43209        57.00000
       110.46548        65.00000
       110.49889        38.00000
       110.53227        43.00000
       110.56577        46.00000
       110.59917        38.00000
       110.63257        38.00000
       110.66597        31.00000
       110.69946        59.00000
       110.73286        57.00000
       110.76625        51.00000
       110.79965        57.00000
       110.83305        61.00000
       110.86655        48.00000
       110.89995        60.00000
       110.93333        46.00000
       110.96674        27.00000
       111.00023        37.00000
       111.03363        28.00000
       111.06703        28.00000
       111.10043        30.00000
       111.13382        32.00000
       111.16731        28.00000
       111.20071        38.00000
       111.23412        25.00000
       111.26751        38.00000
       111.30101        26.00000
       111.33440        30.00000
       111.36780        30.00000
       111.40119        28.00000
       111.43459        28.00000
       111.46809        21.00000
       111.50149        23.00000
       111.53488        28.00000
       111.56828        28.00000
       111.60178        26.00000
       111.63518        36.00000
       111.66857        36.00000
       111.70197        25.00000
       111.73546        31.00000
       111.76886        26.00000
       111.80225        36.00000
       111.83566        28.00000
       111.86906        23.00000
       111.90255        25.00000
       111.93594        31.00000
       111.96934        28.00000
       112.00274        32.00000
       112.03623        35.00000
       112.06963        27.00000
       112.10303        33.00000
       112.13642        37.00000
       112.16982        28.00000
       112.20332        23.00000
       112.23672        22.00000
       112.27012        25.00000
       112.30350        23.00000
       112.33701        22.00000
       112.37040        36.00000
       112.40380        30.00000
       112.43719        25.00000
       112.47060        26.00000
       112.50409        33.00000
       112.53748        18.00000
       112.57088        35.00000
       112.60428        27.00000
       112.63778        21.00000
       112.67117        26.00000
       112.70457        26.00000
       112.73797        31.00000
       112.77146        25.00000
       112.80486        35.00000
       112.83826        28.00000
       112.87166        21.00000
       112.90504        20.00000
       112.93855        30.00000
       112.97195        16.00000
       113.00534        21.00000
       113.03874        30.00000
       113.07213        32.00000
       113.10563        23.00000
       113.13902        31.00000
       113.17242        18.00000
       113.20583        37.00000
       113.23932        28.00000
       113.27272        11.00000
       113.30611        27.00000
       113.33951        23.00000
       113.37301        20.00000
       113.40640        18.00000
       113.43980        33.00000
       113.47319        27.00000
       113.50659        23.00000
       113.54008        30.00000
       113.57349        30.00000
       113.60689        22.00000
       113.64028        27.00000
       113.67377        23.00000
       113.70717        27.00000
       113.74057        26.00000
       113.77396        42.00000
       113.80737        26.00000
       113.84087        28.00000
       113.87425        25.00000
       113.90765        35.00000
       113.94105        33.00000
       113.97455        31.00000
       114.00794        22.00000
       114.04134        33.00000
       114.07474        27.00000
       114.10823        23.00000
       114.14163        20.00000
       114.17503        35.00000
       114.20843        23.00000
       114.24181        20.00000
       114.27531        42.00000
       114.30872        31.00000
       114.34211        23.00000
       114.37551        23.00000
       114.40900        25.00000
       114.44241        22.00000
       114.47579        25.00000
       114.50919        30.00000
       114.54259        31.00000
       114.57609        33.00000
       114.60949        41.00000
       114.64288        30.00000
       114.67628        22.00000
       114.70977        30.00000
       114.74317        25.00000
       114.77657        22.00000
       114.80997        26.00000
       114.84347        33.00000
       114.87685        33.00000
       114.91026        32.00000
       114.94365        25.00000
       114.97705        31.00000
       115.01055        25.00000
       115.04394        28.00000
       115.07734        35.00000
       115.11073        27.00000
       115.14423        32.00000
       115.17763        41.00000
       115.21103        25.00000
       115.24442        33.00000
       115.27782        28.00000
       115.31132        28.00000
       115.34471        20.00000
       115.37811        46.00000
       115.41151        22.00000
       115.44500        27.00000
       115.47840        27.00000
       115.51180        36.00000
       115.54520        30.00000
       115.57859        26.00000
       115.61209        22.00000
       115.64548        30.00000
       115.67888        27.00000
       115.71228        33.00000
       115.74577        32.00000
       115.77917        20.00000
       115.81256        25.00000
       115.84596        42.00000
       115.87936        28.00000
       115.91286        30.00000
       115.94626        41.00000
       115.97965        37.00000
       116.01305        31.00000
       116.04654        47.00000
       116.07994        52.00000
       116.11333        62.00000
       116.14674        87.00000
       116.18014        91.00000
       116.21362       133.00000
       116.24702       143.00000
       116.28042       169.00000
       116.31382       146.00000
       116.34731       125.00000
       116.38071        84.00000
       116.41411        55.00000
       116.44750        66.00000
       116.48100        56.00000
       116.51440        45.00000
       116.54780        54.00000
       116.58119        57.00000
       116.61459        84.00000
       116.64809        86.00000
       116.68148       108.00000
       116.71488       105.00000
       116.74828        90.00000
       116.78178        77.00000
       116.81516        71.00000
       116.84856        59.00000
       116.88196        45.00000
       116.91536        54.00000
       116.94886        41.00000
       116.98225        37.00000
       117.01565        32.00000
       117.04904        28.00000
       117.08254        22.00000
       117.11594        30.00000
       117.14934        20.00000
       117.18273        28.00000
       117.21622        25.00000
       117.24963        27.00000
       117.28302        27.00000
       117.31642        25.00000
       117.34982        30.00000
       117.38332        33.00000
       117.41671        27.00000
       117.45010        28.00000
       117.48351        32.00000
       117.51690        20.00000
       117.55040        36.00000
       117.58379        22.00000
       117.61719        36.00000
       117.65058        27.00000
       117.68408        26.00000
       117.71748        23.00000
       117.75088        26.00000
       117.78427        27.00000
       117.81776        32.00000
       117.85117        16.00000
       117.88456        22.00000
       117.91796        32.00000
       117.95136        22.00000
       117.98485        28.00000
       118.01825        18.00000
       118.05164        32.00000
       118.08504        23.00000
       118.11854        20.00000
       118.15194        17.00000
       118.18533        20.00000
       118.21873        18.00000
       118.25213        26.00000
       118.28562        25.00000
       118.31902        25.00000
       118.35241        27.00000
       118.38581        22.00000
       118.41930        27.00000
       118.45271        15.00000
       118.48611        22.00000
       118.51950        32.00000
       118.55300        30.00000
       118.58639        25.00000
       118.61979        26.00000
       118.65318        28.00000
       118.68658        27.00000
       118.72009        22.00000
       118.75347        23.00000
       118.78687        30.00000
       118.82027        37.00000
       118.85377        20.00000
       118.88716        25.00000
       118.92056        36.00000
       118.95395        21.00000
       118.98735        27.00000
       119.02085        22.00000
       119.05424        21.00000
       119.08765        28.00000
       119.12104        38.00000
       119.15453        30.00000
       119.18793        32.00000
       119.22133        23.00000
       119.25473        22.00000
       119.28812        30.00000
       119.32162        26.00000
       119.35501        33.00000
       119.38841        25.00000
       119.42181        36.00000
       119.45531        33.00000
       119.48870        28.00000
       119.52210        28.00000
       119.55550        31.00000
       119.58889        26.00000
       119.62239        26.00000
       119.65578        22.00000
       119.68919        32.00000
       119.72257        20.00000
       119.75607        20.00000
       119.78947        31.00000
       119.82287        32.00000
       119.85627        31.00000
       119.88966        30.00000
       119.92316        25.00000
       119.95655        30.00000
       119.98995        32.00000
