<?xml version="1.0"?>
<xrdMeasurements xmlns="http://www.xrdml.com/XRDMeasurement/2.2" xmlns:xsi="http://www.w3.org/2001/XMLSchema-instance" xsi:schemaLocation="http://www.xrdml.com/XRDMeasurement/2.2 http://www.xrdml.com/XRDMeasurement/2.2/XRDMeasurement.xsd" status="Completed" recordIdentifier="{3746FF8B-47B7-43CA-BC9F-1370DCBFC7E5}">
	<comment>
		<entry>Configuration=Spinner, Owner=User, Creation date=8/6/2021 9:39:53 AM</entry>
		<entry>Goniometer=Theta/Theta; Minimum step size 2Theta:0.0001; Minimum step size Omega:0.0001</entry>
		<entry>Sample stage=Reflection-transmission spinner; Minimum step size Phi:0.1</entry>
		<entry>Diffractometer system=EMPYREAN</entry>
		<entry>Measurement program=C:\PANalytical\Data Collector\Programs\!!!!!Spinner.xrdmp, Identifier={4B50F746-6C51-45B9-A16B-652E22A1C9CB}</entry>
	</comment>
	<sample type="To be analyzed">
		<id></id>
		<name></name>
		<preparedBy></preparedBy>
	</sample>
	<xrdMeasurement measurementType="Scan" status="Completed" sampleMode="Reflection">
		<comment>
			<entry>PHD Lower Level = 5.79 (keV), PHD Upper Level = 12.80 (keV)</entry>
		</comment>
		<usedWavelength intended="K-Alpha 1">
			<kAlpha1 unit="Angstrom">1.5405980</kAlpha1>
			<kAlpha2 unit="Angstrom">1.5444260</kAlpha2>
			<kBeta unit="Angstrom">1.3922500</kBeta>
			<ratioKAlpha2KAlpha1>0.5000</ratioKAlpha2KAlpha1>
		</usedWavelength>
		<incidentBeamPath>
			<radius unit="mm">240.00</radius>
			<xRayTube id="1010041" name="Empyrean Cu LFF (9430 033 7300x) DK432123">
				<tension unit="kV">40.0</tension>
				<current unit="mA">40.0</current>
				<anodeMaterial>Cu</anodeMaterial>
				<focus type="Line">
					<length unit="mm">12.0</length>
					<width unit="mm">0.4</width>
					<takeOffAngle unit="deg">6.0</takeOffAngle>
				</focus>
			</xRayTube>
			<filter id="20010004" name="Beta-filter Nickel">
				<material>Ni</material>
				<thickness unit="mm">0.020</thickness>
			</filter>
			<sollerSlit id="21010002" name="Soller slits 0.04 rad.">
				<opening unit="rad">0.0400</opening>
			</sollerSlit>
			<mask id="22080002" name="Fixed incident beam mask 10 mm">
				<width unit="mm">6.60</width>
			</mask>
			<antiScatterSlit id="22010003" name="Fixed slit 1°" xsi:type="fixedAntiScatterSlitType">
				<height unit="mm">1.52</height>
			</antiScatterSlit>
			<divergenceSlit id="22010012" name="Programmable divergence slit" xsi:type="fixedDivergenceSlitType">
				<distanceToSample unit="mm">140.00</distanceToSample>
				<angle unit="deg">0.5</angle>
			</divergenceSlit>
		</incidentBeamPath>
		<sampleMovement xsi:type="spinningSampleMovementType">
			<spinnerRevolutionTime unit="seconds">1.0</spinnerRevolutionTime>
		</sampleMovement>
		<diffractedBeamPath>
			<radius unit="mm">240.00</radius>
			<antiScatterSlit id="22110001" name="AS slit 3.9 mm (X'Celerator)" xsi:type="fixedAntiScatterSlitType">
				<height unit="mm">3.90</height>
			</antiScatterSlit>
			<sollerSlit id="21010008" name="Soller slits 0.0175 rad.">
				<opening unit="rad">0.0175</opening>
			</sollerSlit>
			<monochromator id="23010030" name="Diffracted beam monochr. for X'Celerator and Cu" hybrid="false">
				<crystal type="Symmetric" shape="Flat">C</crystal>
				<numberOfReflections>1</numberOfReflections>
				<hkl>
					<h>0</h>
					<k>0</k>
					<l>2</l>
				</hkl>
			</monochromator>
			<detector id="7010013" name="X'Celerator detector" xsi:type="rtmsDetectorType">
				<phd unit="%">
					<lowerLevel>36.0</lowerLevel>
					<upperLevel>79.5</upperLevel>
				</phd>
				<mode>Scanning</mode>
				<activeLength unit="deg">2.1223</activeLength>
			</detector>
		</diffractedBeamPath>
		<scan appendNumber="0" mode="Continuous" scanAxis="Gonio" status="Completed">
			<header>
				<startTimeStamp>2025-01-09T19:26:32+01:00</startTimeStamp>
				<endTimeStamp>2025-01-10T06:36:33+01:00</endTimeStamp>
				<author>
					<name>User</name>
				</author>
				<source>
					<applicationSoftware version="7.1">Data Collector</applicationSoftware>
					<instrumentControlSoftware version="8.2  20201204">EMPYREAN</instrumentControlSoftware>
					<instrumentID>0000000011085918</instrumentID>
				</source>
			</header>
			<dataPoints>
				<positions axis="2Theta" unit="deg">
					<startPosition>10.00136690</startPosition>
					<endPosition>149.97495586</endPosition>
				</positions>
				<positions axis="Omega" unit="deg">
					<startPosition>5.00068345</startPosition>
					<endPosition>74.98747793</endPosition>
				</positions>
				<positions axis="Phi" unit="deg">
					<commonPosition>278.3</commonPosition>
				</positions>
				<commonCountingTime unit="seconds">1800.225</commonCountingTime>
				<counts unit="counts">6381 6416 6452 6564 6368 6379 6351 6359 6462 6142 6218 6386 6205 6203 6267 6132 6080 6100 6092 6053 6292 6079 6163 6021 6094 5950 6034 6220 6002 6027 6094 5982 5922 5953 5940 5933 6143 5868 5981 5865 5969 5872 5876 6020 5762 5845 5807 5835 5969 5895 5938 5804 5834 5803 5791 5823 5751 5918 5761 5712 5635 5775 5791 5774 5674 5681 5658 5621 5655 5762 5917 5715 5652 5741 5747 5629 5559 5647 5584 5690 5688 5557 5698 5587 5740 5580 5608 5641 5608 5768 5700 5586 5655 5636 5563 5599 5570 5591 5620 5614 5647 5674 5667 5714 5678 5529 5827 5629 5696 5799 5659 5723 5731 5676 5829 5709 5871 5762 5746 5848 5838 5882 5873 5962 5923 5953 6026 6044 6164 6258 6145 6051 6273 6064 6198 6253 6267 6389 6448 6493 6540 6606 6676 6664 6568 6683 6698 6800 6839 6867 6945 6877 6987 7103 7188 7129 7392 7245 7263 7474 7561 7427 7453 7579 7738 7935 7955 8054 8150 8403 8533 8687 8986 9150 9567 9953 10412 11107 11437 12272 13069 13310 13943 13905 13377 12637 11915 11296 10549 10325 9779 9378 9109 8974 8802 8665 8428 8156 8123 8114 8085 7691 7695 7619 7512 7387 7104 7165 6850 6784 6572 6573 6637 6575 6382 6367 6181 6118 6136 5899 5844 5780 5678 5589 5579 5505 5391 5435 5416 5375 5400 5259 5151 5117 5037 5052 5044 4911 5068 4954 4987 4935 4901 4893 4844 4869 4833 4978 4828 4864 4774 4721 4763 4761 4813 4652 4708 4649 4664 4686 4674 4732 4637 4635 4557 4631 4635 4563 4576 4598 4487 4654 4545 4463 4608 4579 4580 4698 4456 4672 4484 4592 4450 4663 4548 4521 4456 4508 4455 4522 4474 4475 4476 4487 4521 4375 4576 4460 4499 4366 4466 4495 4476 4466 4469 4481 4517 4407 4442 4394 4489 4431 4436 4467 4445 4513 4450 4505 4394 4450 4444 4324 4396 4279 4408 4318 4456 4460 4388 4413 4387 4340 4297 4480 4392 4505 4418 4331 4388 4431 4491 4393 4298 4277 4239 4226 4364 4390 4354 4438 4460 4342 4278 4416 4358 4305 4411 4330 4282 4367 4404 4236 4488 4328 4339 4392 4332 4262 4315 4238 4385 4401 4275 4308 4307 4338 4227 4250 4324 4372 4339 4230 4345 4194 4440 4396 4285 4325 4343 4185 4266 4277 4364 4412 4361 4387 4371 4382 4325 4414 4240 4310 4242 4222 4345 4233 4388 4383 4397 4184 4246 4278 4370 4334 4394 4365 4420 4390 4378 4375 4247 4371 4408 4403 4480 4332 4448 4424 4425 4506 4311 4470 4625 4453 4444 4541 4588 4476 4559 4516 4701 4677 4689 4740 4841 4937 5300 5649 6349 7217 7684 7601 7436 6990 6746 6599 6771 6878 7139 7004 7066 7108 7054 7047 6967 6789 6623 6377 6433 6117 6146 6043 5899 5774 5554 5460 5444 5291 5334 5409 5159 5253 5168 5158 5143 4997 4890 5027 5012 4942 4893 4901 4855 4939 4919 4977 4895 4751 4840 4820 4836 4794 4845 4940 4927 4828 4929 4892 4894 4906 4843 5087 4820 4968 4920 4958 5129 4937 5096 5019 5168 5152 5135 5134 5314 5530 5509 5466 5512 5645 5744 5708 6011 6072 6124 6186 6278 6371 6284 6487 6529 6429 6629 6580 6720 6790 6993 7103 7114 7494 7727 7954 8318 8716 9399 9757 10810 11655 12526 12560 12674 12125 11206 10482 10127 9623 9293 9117 8880 8503 8558 8327 8088 8165 7910 7769 7537 7407 7439 7215 7018 7134 6926 6771 6518 6556 6515 6385 6325 6217 6132 6085 5940 5862 5868 5895 5779 5755 5552 5426 5439 5457 5223 5209 5155 5343 5313 5256 5177 5034 4971 5016 5135 4934 4896 4969 4931 4797 4888 4803 4824 4747 4956 4736 4692 4639 4772 4560 4605 4561 4610 4540 4489 4513 4596 4350 4305 4424 4428 4522 4304 4399 4325 4482 4437 4373 4261 4372 4407 4421 4316 4364 4385 4445 4317 4327 4302 4302 4277 4284 4344 4309 4296 4188 4226 4331 4177 4196 4267 4317 4338 4294 4201 4268 4274 4244 4223 4296 4179 4267 4228 4328 4333 4301 4127 4292 4149 4145 4256 4343 4197 4233 4282 4202 4348 4344 4261 4341 4283 4254 4285 4209 4171 4274 4168 4259 4339 4113 4149 4161 4217 4127 4129 4145 4075 4108 4199 4069 4065 4163 4105 4263 4174 4194 4136 4043 4142 4102 4167 4084 4169 4306 4080 4103 4175 4259 4080 4096 4076 4032 4123 4090 4081 4101 4231 4247 4093 4272 4015 4232 4134 4198 4226 4321 4273 4306 4211 4174 4218 4258 4249 4343 4385 4314 4284 4345 4287 4204 4269 4295 4320 4354 4234 4415 4242 4284 4359 4374 4359 4373 4200 4349 4366 4439 4531 4550 4546 4531 4677 4467 4639 4628 4578 4522 4678 4475 4691 4739 4688 4685 4621 4720 4763 4713 4708 4811 4826 4839 4855 4788 4991 4933 4930 5059 5056 5057 5061 5297 5323 5466 5611 5683 5863 5996 6122 6463 6433 6718 6609 6557 6262 6161 6124 5980 5821 5607 5449 5353 5251 5236 5059 5126 5022 4964 4916 4903 4876 4908 4834 4821 4691 4851 4688 4753 4844 4624 4756 4679 4610 4556 4545 4559 4538 4540 4464 4486 4567 4523 4372 4405 4506 4459 4547 4403 4397 4327 4504 4381 4312 4312 4522 4322 4267 4268 4340 4258 4264 4292 4251 4171 4243 4225 4156 4102 4141 4216 4140 4164 4126 4236 4097 4107 4165 4067 4250 4200 4053 4098 4086 4113 4193 4022 4046 4129 4143 4072 4138 4103 4040 4054 4057 4234 4118 4116 4022 4001 4051 4146 4156 4058 3990 4053 4142 4074 4129 4026 4015 4214 4082 4153 4096 4114 4229 4035 4186 4079 4176 4073 4296 4034 4272 4388 4408 4544 4556 4956 5142 5534 5725 5566 5502 5523 5356 5390 5191 5138 4957 4962 5104 5140 5272 5301 5330 5576 5604 5606 5694 5703 5648 5662 5593 5652 5570 5614 5449 5381 5234 5297 5191 5100 5050 4968 4935 4958 4863 4829 4812 4591 4544 4456 4496 4473 4403 4429 4390 4388 4374 4204 4314 4476 4351 4388 4363 4454 4294 4300 4400 4341 4321 4344 4390 4388 4436 4366 4504 4708 4802 4864 5020 5099 5270 5212 5392 5280 5253 5178 5171 4990 4946 5036 4887 4942 4951 4986 4887 5042 5096 5065 4901 4930 4949 4853 4884 4756 4715 4645 4735 4592 4612 4577 4513 4513 4466 4392 4489 4357 4283 4390 4222 4271 4112 4340 4212 4239 4118 4043 4108 4111 4236 4048 4004 4046 4023 4110 4161 4205 4080 4061 4060 4097 3979 4040 4016 3992 4098 4107 4041 4069 4119 4103 4138 4063 4016 4049 4048 4193 4159 4007 4094 3996 4011 3996 4049 3929 4026 3942 4040 3987 4029 3831 4034 3990 3979 3916 3921 4009 4002 3857 3898 3949 4036 3962 3965 3953 3996 3966 3929 3956 4069 4044 3967 4025 4011 3927 3956 3978 3996 4007 4044 3930 3948 4028 3825 4052 4041 3965 4093 4214 4129 4232 4172 4093 4136 4231 4052 4177 4063 4142 4152 4147 4132 4265 4115 4126 4225 4265 4240 4210 4324 4311 4450 4472 4539 4337 4457 4623 4524 4628 4467 4624 4524 4644 4566 4531 4525 4491 4430 4406 4463 4300 4353 4225 4297 4216 4161 4153 4327 4182 4157 4277 4218 4126 4205 4177 4145 4120 4234 4222 4390 4236 4249 4344 4439 4367 4525 4531 4604 4716 4651 4553 4642 4509 4728 4483 4389 4516 4575 4588 4416 4401 4398 4397 4322 4329 4374 4244 4269 4420 4351 4287 4307 4282 4330 4414 4135 4231 4239 4258 4247 3984 4240 4128 4226 4106 4119 4117 4113 4133 4111 4068 3999 4011 3997 4131 4031 3931 3973 4008 4050 3931 3942 3858 3994 4012 3974 3892 3844 3880 3930 4031 3772 3865 3838 3882 3940 3892 3772 3741 3855 3847 3886 3846 3864 3844 3737 3837 3854 3837 3934 3943 3765 3644 3672 3772 3838 3751 3890 3838 3914 3741 3825 3843 3815 3750 3850 3816 3787 3774 3835 3692 3765 3831 3765 3733 3880 3789 3717 3864 3862 3709 3622 3687 3753 3761 3814 3782 3770 3943 3791 3897 3788 3807 3680 3769 3780 3800 3826 3777 3758 3838 3815 3821 3830 3751 3748 3814 3726 3751 3714 3811 3874 3715 3701 3814 3752 3776 3738 3785 3792 3748 3754 3711 3816 3832 3623 3765 3767 3731 3891 3785 3813 3801 4016 3890 3731 3795 3741 3904 3822 3760 3783 3772 3794 3813 3867 3898 3882 3726 3868 3809 3808 3902 3958 3784 4025 4080 4127 3959 3992 4081 4003 4041 4160 4130 4030 4009 4105 4019 3999 3916 3891 4095 4080 3934 4013 4012 3966 3961 3847 3875 3985 3980 3956 3961 3912 3944 3840 4065 3847 3987 3912 3916 3886 3803 3989 3877 3877 3925 3894 3916 3869 3907 3877 4022 4017 3847 3918 3809 3810 3920 3831 3744 3809 3844 3760 3820 3812 3835 3798 3774 3783 3714 3748 3718 3863 3749 3907 3910 3810 3836 3709 3768 3772 3735 3692 3697 3803 3756 3705 3695 3715 3803 3755 3682 3738 3776 3649 3656 3725 3749 3675 3827 3648 3676 3759 3775 3597 3735 3715 3779 3741 3753 3759 3684 3738 3719 3836 3778 3862 3712 3658 3661 3686 3720 3804 3837 3671 3812 3776 3792 3750 3722 3787 3808 3676 3746 3892 3755 3760 3729 3732 3760 3845 3878 3975 3865 3810 3830 3881 3837 3844 3813 3805 3796 3800 3647 3792 3739 3679 3827 3765 3737 3726 3808 3737 3817 3803 3727 3799 3780 3701 3800 3746 3741 3764 3805 3780 3826 3745 3779 3828 3741 3742 3798 3756 3717 3738 3834 3873 3756 3850 3853 3725 3719 3734 3760 3895 3827 3859 3692 3793 3748 3673 3793 3800 3792 3802 3901 3749 3764 3783 3682 3699 3766 3631 3751 3766 3780 3653 3800 3777 3827 3745 3681 3861 3792 3761 3851 3738 3705 3819 3805 3845 3719 3881 3751 3731 3753 3682 3662 3813 3905 3811 3663 3763 3748 3735 3714 3722 3682 3811 3801 3791 3718 3703 3687 3602 3779 3721 3767 3733 3736 3694 3726 3735 3784 3689 3710 3771 3765 3847 3680 3763 3817 3699 3636 3710 3742 3827 3733 3819 3751 3664 3850 3844 3698 3833 3755 3748 3727 3815 3803 3787 3750 3785 3786 3876 3865 3825 3810 3817 3877 3755 3750 3853 3801 3954 3871 3673 3780 3833 3800 3807 3879 3788 3882 3877 3850 3891 3795 3931 4032 3869 3852 3886 3968 3991 3953 3940 3914 3926 3857 3975 3968 3996 3782 3911 3862 4014 3980 3846 3846 3929 3981 4002 3943 3962 4090 3852 3898 3880 3842 3888 3930 3901 3981 4002 3998 4044 4167 4008 4125 4012 4091 4047 4143 4047 3999 3964 4027 4053 4031 3964 3946 4061 3978 3962 3935 3964 3963 3838 3953 4039 3945 3954 3881 3978 4028 3952 3993 4053 4036 3869 4007 3968 3968 4090 3947 3992 3916 3962 3952 3982 3963 3852 3920 3913 3904 3829 3875 4015 3887 4025 3903 3851 3933 3909 3910 3747 3865 3948 3767 3966 3838 3919 3949 3875 3874 3809 3715 3900 3803 3840 3783 3881 3832 3835 3714 3793 3786 3842 3796 3712 3888 3881 3810 3668 3827 3813 3760 3775 3764 3857 3725 3747 3752 3769 3827 3764 3827 3649 3669 3650 3675 3775 3658 3671 3854 3835 3788 3747 3706 3720 3746 3683 3775 3729 3691 3771 3768 3725 3725 3709 3765 3782 3687 3859 3754 3756 3684 3729 3706 3596 3734 3903 3747 3655 3613 3722 3838 3664 3720 3688 3731 3805 3741 3696 3786 3754 3832 3871 3764 3693 3902 3775 3781 3752 3794 3700 3878 3857 3710 3811 3683 3798 3820 3794 3848 3748 3694 3734 3767 3857 3826 3769 3767 3864 3894 3878 3779 3829 3905 3864 3892 3925 3999 3942 3976 3983 3936 3868 4024 4013 3990 4125 4058 4044 4105 4048 4041 3984 4039 3974 3980 3966 4037 3990 3989 4002 4015 3995 3981 3915 4014 4010 3954 3969 3984 4004 4079 3974 4046 4015 4028 4111 4041 3997 3953 4044 3978 4082 4165 4125 4068 3957 3981 4119 4042 4051 4091 3982 4013 4188 4195 3986 4123 4007 4057 3971 3959 4073 3960 3987 3962 3897 3989 3990 4099 3998 4034 3926 4026 3915 3942 3947 3883 3901 3905 3875 3890 4048 3935 3862 3842 3899 3837 3809 3894 3969 3909 3837 3867 3898 3932 3733 3832 3673 3812 3871 3884 3838 3981 3779 3860 3820 3770 3813 3815 3858 3863 3873 3788 3767 3987 3867 3910 3904 3838 3924 3870 3971 3890 3787 3830 3841 3860 3900 3900 3761 3819 3853 3880 3814 3781 3820 3845 3698 3918 3762 3867 3785 3838 3898 3894 3666 3846 3797 3888 3946 3815 3842 3828 3813 3826 3861 3848 3769 3835 3887 3805 3774 3935 3825 3920 3928 3931 3923 3957 3812 3966 3838 3874 3827 3949 3805 3814 3812 3945 3942 3838 3917 3885 3852 3878 3959 3965 4033 3991 3868 3842 3973 3829 3901 3915 3918 3884 3919 3881 3903 3883 3949 3934 3940 3767 3852 3862 3829 3863 3907 3880 3842 3858 3755 3801 3798 3857 3769 3945 3887 3805 3840 3845 3867 3891 4032 3887 3954 3845 3909 4053 3879 3984 3858 3878 3795 3891 3871 3880 3937 4062 3847 3924 3874 3907 3887 3810 4059 3817 3879 4017 3904 3873 3795 3956 3885 3963 3993 3882 3813 3874 3913 3921 3936 3868 3812 3954 3816 3917 3724 3885 3931 3880 3940 3843 3832 3875 3893 3991 3980 3870 3841 3824 3835 3952 3917 3913 3863 3737 3775 3860 3892 3871 3811 3753 3808 3849 3780 3862 3873 3851 3909 3753 3870 3794 3870 3933 3730 3879 3863 3849 3750 3786 3843 3775 3937 3789 3873 3793 3893 3820 3739 3716 3821 3845 3886 3831 3846 3749 3993 3847 3857 3829 3857 3963 3886 3840 3834 3894 3842 3897 3837 3912 3905 3775 3960 3905 3961 3820 3812 3944 3925 3928 4041 3928 3828 3874 3958 3844 3899 3892 3936 3954 3879 3913 3944 3875 3907 3940 3913 3801 3789 3840 3867 3940 3962 3847 3886 3858 3864 3909 3938 3879 3891 3876 3833 3869 3698 3792 3947 3960 3983 3812 3813 3748 3934 4048 3777 3883 3904 3776 3855 3919 3848 3846 3919 3766 3848 3853 3863 3840 3994 3924 3859 4035 3881 3855 3827 3836 3799 3931 3817 3734 3897 3909 3964 3801 3869 3875 3827 3984 3824 3763 3751 3801 3957 3877 3960 3800 3891 3827 3816 3869 3983 3843 3875 3868 3877 3785 3817 3724 3964 3851 3883 3814 3800 3885 3760 3724 3910 3736 3864 3795 3828 3890 3911 3925 3827 3869 3742 3875 3882 3798 3811 3859 3759 3753 3765 3755 3849 3730 3808 3779 3754 3721 3865 3744 3729 3661 3892 3778 3701 3731 3819 3846 3764 3776 3820 3786 3675 3905 3901 3838 3865 3789 3864 3710 3861 3771 3916 3791 3832 3844 3748 3763 3799 3843 3680 3782 3815 3752 3953 3824 3883 3718 3899 3819 3827 3798 3714 3824 3798 3734 3788 3787 3795 3926 3792 3729 3731 3777 3711 3733 3800 3801 3798 3871 3765 3682 3825 3745 3816 3682 3963 3751 3751 3765 3781 3784 3791 3899 3677 3789 3866 3816 3822 3869 3853 3807 3788 3865 3777 3848 3891 3899 3734 3754 3777 3855 3864 3769 3914 3813 3688 3849 3809 3781 3705 3815 3824 3943 3813 3804 3759 3745 3764 3744 3828 3812 3788 3799 3841 3748 3751 3863 3798 3799 3719 3667 3815 3758 3721 3808 3804 3798 3836 3651 3706 3817 3835 3743 3747 3706 3755 3764 3705 3717 3785 3689 3866 3726 3776 3835 3784 3670 3754 3804 3716 3753 3745 3803 3727 3756 3765 3751 3755 3929 3798 3840 3739 3780 3847 3860 3788 3780 3859 3719 3771 3838 3706 3788 3688 3877 3745 3847 3730 3782 3793 3915 3745 3734 3844 3695 3730 3820 3731 3850 3810 3875 3886 3767 3930 3794 4020 3837 3886 3894 3851 3841 3881 3737 3766 3805 3848 3709 3841 3826 3717 3870 3888 3866 3877 3799 3876 3952 3855 3799 3764 3841 3880 3857 3888 3782 3849 3791 3833 3702 3942 3706 3794 3804 3814 3659 3919 3821 3907 3819 3857 3800 3982 3950 3863 3866 3813 3952 3884 3796 3879 3736 3841 3815 3894 3811 3833 3873 3875 3919 3809 3869 3840 3774 3911 3825 3984 3792 3827 3831 3819 3914 3782 3865 3859 3965 3966 3976 3799 4017 3911 4008 3879 3931 4022 3882 3904 3866 3850 3837 3891 3802 3794 3918 3958 3827 3951 3938 3926 3896 3882 3847 3918 3885 3914 3920 3950 3905 3933 3879 3946 3853 3963 3904 3840 3998 3882 3860 3882 3923 3927 4003 3919 3958 4015 3951 4046 3908 3854 3925 3852 3778 3832 3826 3808 3881 3920 3881 3891 3895 3910 4065 3890 3845 3992 3961 3920</counts>
			</dataPoints>
		</scan>
	</xrdMeasurement>
</xrdMeasurements>
