<?xml version="1.0"?>
<xrdMeasurements xmlns="http://www.xrdml.com/XRDMeasurement/2.2" xmlns:xsi="http://www.w3.org/2001/XMLSchema-instance" xsi:schemaLocation="http://www.xrdml.com/XRDMeasurement/2.2 http://www.xrdml.com/XRDMeasurement/2.2/XRDMeasurement.xsd" status="Completed" recordIdentifier="{F5F72A81-6BA6-42FF-87DA-A605457C6E2B}">
	<comment>
		<entry>Configuration=Spinner, Owner=User, Creation date=8/6/2021 9:39:53 AM</entry>
		<entry>Goniometer=Theta/Theta; Minimum step size 2Theta:0.0001; Minimum step size Omega:0.0001</entry>
		<entry>Sample stage=Reflection-transmission spinner; Minimum step size Phi:0.1</entry>
		<entry>Diffractometer system=EMPYREAN</entry>
		<entry>Measurement program=C:\PANalytical\Data Collector\Programs\!!!!!Spinner.xrdmp, Identifier={9021B24A-B722-4F1B-985D-7D2F8D23A784}</entry>
	</comment>
	<sample type="To be analyzed">
		<id></id>
		<name></name>
		<preparedBy></preparedBy>
	</sample>
	<xrdMeasurement measurementType="Scan" status="Completed" sampleMode="Reflection">
		<comment>
			<entry>PHD Lower Level = 5.79 (keV), PHD Upper Level = 12.80 (keV)</entry>
		</comment>
		<usedWavelength intended="K-Alpha 1">
			<kAlpha1 unit="Angstrom">1.5405980</kAlpha1>
			<kAlpha2 unit="Angstrom">1.5444260</kAlpha2>
			<kBeta unit="Angstrom">1.3922500</kBeta>
			<ratioKAlpha2KAlpha1>0.5000</ratioKAlpha2KAlpha1>
		</usedWavelength>
		<incidentBeamPath>
			<radius unit="mm">240.00</radius>
			<xRayTube id="1010041" name="Empyrean Cu LFF (9430 033 7300x) DK432123">
				<tension unit="kV">40.0</tension>
				<current unit="mA">40.0</current>
				<anodeMaterial>Cu</anodeMaterial>
				<focus type="Line">
					<length unit="mm">12.0</length>
					<width unit="mm">0.4</width>
					<takeOffAngle unit="deg">6.0</takeOffAngle>
				</focus>
			</xRayTube>
			<filter id="20010004" name="Beta-filter Nickel">
				<material>Ni</material>
				<thickness unit="mm">0.020</thickness>
			</filter>
			<sollerSlit id="21010002" name="Soller slits 0.04 rad.">
				<opening unit="rad">0.0400</opening>
			</sollerSlit>
			<mask id="22080002" name="Fixed incident beam mask 10 mm">
				<width unit="mm">6.60</width>
			</mask>
			<antiScatterSlit id="22010003" name="Fixed slit 1°" xsi:type="fixedAntiScatterSlitType">
				<height unit="mm">1.52</height>
			</antiScatterSlit>
			<divergenceSlit id="22010012" name="Programmable divergence slit" xsi:type="fixedDivergenceSlitType">
				<distanceToSample unit="mm">140.00</distanceToSample>
				<angle unit="deg">2</angle>
			</divergenceSlit>
		</incidentBeamPath>
		<sampleMovement xsi:type="spinningSampleMovementType">
			<spinnerRevolutionTime unit="seconds">1.0</spinnerRevolutionTime>
		</sampleMovement>
		<diffractedBeamPath>
			<radius unit="mm">240.00</radius>
			<antiScatterSlit id="22110001" name="AS slit 3.9 mm (X'Celerator)" xsi:type="fixedAntiScatterSlitType">
				<height unit="mm">3.90</height>
			</antiScatterSlit>
			<sollerSlit id="21010008" name="Soller slits 0.0175 rad.">
				<opening unit="rad">0.0175</opening>
			</sollerSlit>
			<monochromator id="23010030" name="Diffracted beam monochr. for X'Celerator and Cu" hybrid="false">
				<crystal type="Symmetric" shape="Flat">C</crystal>
				<numberOfReflections>1</numberOfReflections>
				<hkl>
					<h>0</h>
					<k>0</k>
					<l>2</l>
				</hkl>
			</monochromator>
			<detector id="7010013" name="X'Celerator detector" xsi:type="rtmsDetectorType">
				<phd unit="%">
					<lowerLevel>36.0</lowerLevel>
					<upperLevel>79.5</upperLevel>
				</phd>
				<mode>Scanning</mode>
				<activeLength unit="deg">2.1223</activeLength>
			</detector>
		</diffractedBeamPath>
		<scan appendNumber="0" mode="Continuous" scanAxis="Gonio" status="Completed">
			<header>
				<startTimeStamp>2025-01-09T14:48:02+01:00</startTimeStamp>
				<endTimeStamp>2025-01-09T15:15:31+01:00</endTimeStamp>
				<author>
					<name>User</name>
				</author>
				<source>
					<applicationSoftware version="7.1">Data Collector</applicationSoftware>
					<instrumentControlSoftware version="8.2  20201204">EMPYREAN</instrumentControlSoftware>
					<instrumentID>0000000011085918</instrumentID>
				</source>
			</header>
			<dataPoints>
				<positions axis="2Theta" unit="deg">
					<startPosition>15.01671127</startPosition>
					<endPosition>99.97680275</endPosition>
				</positions>
				<positions axis="Omega" unit="deg">
					<startPosition>7.50835564</startPosition>
					<endPosition>49.98840138</endPosition>
				</positions>
				<positions axis="Phi" unit="deg">
					<commonPosition>107.5</commonPosition>
				</positions>
				<commonCountingTime unit="seconds">80.010</commonCountingTime>
				<counts unit="counts">566 608 544 574 516 539 577 565 589 551 575 562 541 543 558 573 562 512 542 557 557 556 505 523 570 594 558 543 577 582 534 536 569 621 550 546 560 580 630 533 590 547 560 580 594 613 569 581 531 594 565 547 552 540 576 611 624 586 605 525 553 576 592 591 599 623 557 597 608 631 642 609 605 580 606 606 596 582 588 619 596 577 617 602 581 611 639 620 606 594 626 645 626 619 672 683 559 624 646 638 657 678 639 619 705 722 663 676 682 695 753 724 764 769 816 826 828 917 907 951 943 1003 1018 993 1043 975 995 943 944 879 910 822 802 805 776 818 757 703 740 706 705 707 683 693 687 707 724 684 664 652 638 608 614 682 624 567 591 638 596 600 579 585 575 555 591 581 575 572 530 521 555 514 547 541 517 514 505 548 503 544 500 555 507 501 525 471 482 459 470 550 517 450 465 474 489 440 471 455 492 471 445 461 467 470 451 417 442 443 478 458 466 431 480 420 511 417 440 451 411 416 437 408 436 404 421 407 401 407 417 418 432 420 441 403 381 397 429 409 407 399 391 408 416 403 406 432 391 374 389 400 420 430 412 408 414 391 394 411 409 430 391 420 396 395 412 439 386 413 427 417 418 396 427 403 418 414 425 396 413 394 385 422 413 415 403 438 377 453 408 433 382 403 402 401 402 394 374 401 373 381 400 424 412 394 378 394 394 410 387 414 399 387 416 421 394 394 424 383 433 384 389 406 410 378 398 380 391 394 373 403 385 391 407 381 396 400 416 396 411 406 409 421 392 394 371 431 399 408 411 398 392 386 381 391 373 366 392 379 383 403 394 396 399 416 410 425 414 388 400 380 385 421 401 398 399 402 388 353 414 383 388 456 410 385 401 412 415 417 436 402 425 389 363 424 379 379 379 428 401 396 424 420 424 439 409 412 400 420 363 404 416 436 401 379 424 404 428 429 380 412 392 417 365 418 421 414 396 388 387 393 394 402 403 407 414 398 394 400 435 396 400 372 430 429 433 440 432 420 387 453 370 436 426 411 443 414 431 424 421 442 412 426 438 459 440 430 430 426 475 453 468 378 429 410 447 437 457 401 430 447 426 421 447 451 437 423 452 442 432 454 476 442 478 429 471 454 447 483 431 438 440 484 437 445 465 446 468 471 442 427 516 446 493 471 472 489 497 533 550 596 605 620 688 735 777 765 757 748 722 705 702 692 704 639 673 714 726 676 755 716 733 728 696 705 699 671 681 741 698 649 671 678 681 639 629 596 580 596 629 574 533 537 563 511 575 539 621 527 540 533 566 514 493 525 522 542 497 548 537 517 492 528 499 498 467 487 504 514 503 559 510 468 529 516 465 510 517 521 521 523 518 496 525 537 543 526 487 500 496 539 530 503 540 529 524 537 510 586 551 560 528 522 515 548 516 545 553 554 512 504 550 542 560 545 590 548 562 539 562 579 586 579 615 626 657 596 569 648 649 676 693 642 640 706 701 673 639 747 714 674 685 674 735 778 746 701 745 768 790 699 806 784 827 821 856 831 815 872 936 985 1029 992 1097 1155 1219 1251 1365 1384 1402 1415 1382 1350 1324 1340 1271 1146 1202 1253 1220 1184 1174 1096 1055 1014 947 960 893 857 919 855 851 838 871 827 848 811 832 835 780 763 779 790 772 734 742 802 748 664 695 738 715 703 687 689 712 717 659 645 666 671 637 648 638 650 640 667 605 619 605 566 613 628 591 627 546 580 567 581 573 561 594 579 572 620 551 577 546 555 587 539 539 501 567 546 487 524 576 523 511 544 537 565 553 553 539 505 546 541 523 519 516 538 494 532 469 511 498 541 502 532 533 502 469 500 502 508 503 514 563 474 487 489 500 484 489 451 519 510 450 496 492 497 507 504 468 504 537 489 420 447 450 494 490 476 454 476 481 496 475 459 501 486 499 471 472 475 484 507 481 497 464 510 476 504 524 509 460 522 437 502 440 475 454 484 503 443 486 438 497 476 481 436 446 484 489 459 485 450 518 512 466 512 486 530 556 490 531 500 519 518 525 490 500 481 465 458 490 475 483 481 445 529 503 534 484 439 450 452 442 449 486 463 494 472 439 463 476 492 458 479 461 451 493 475 458 436 496 468 487 484 466 459 472 487 445 444 467 475 457 484 472 481 464 460 474 495 455 455 474 468 474 480 484 442 479 502 478 450 458 455 432 476 487 438 479 469 508 449 464 472 447 481 478 454 458 465 481 449 468 475 470 474 469 490 425 437 480 492 482 502 461 483 492 507 452 456 474 464 508 511 466 512 461 503 498 480 504 486 486 494 443 485 518 510 522 463 518 486 524 486 509 465 497 496 539 494 518 498 492 531 475 521 500 516 548 504 523 548 527 505 521 534 523 494 543 559 516 527 556 561 568 581 554 529 512 595 542 528 551 553 551 513 528 558 524 623 610 541 587 568 554 568 591 572 602 599 625 628 654 611 645 641 661 709 634 659 660 698 719 740 791 796 759 789 784 718 772 707 666 621 699 604 647 654 609 639 573 574 589 605 584 580 604 572 542 638 537 527 553 554 589 588 516 572 526 580 576 560 570 547 556 577 539 505 562 554 530 507 553 537 551 530 527 544 568 511 471 559 485 490 527 484 461 525 552 498 516 489 483 514 501 483 481 538 492 504 503 508 525 518 460 466 505 525 524 471 471 542 496 481 488 503 500 488 463 502 514 495 456 466 483 421 480 483 457 470 480 488 496 481 485 493 468 495 457 476 439 495 475 494 487 459 460 473 501 452 412 473 471 436 467 430 465 469 459 459 468 469 453 417 433 475 480 452 452 467 486 482 480 447 485 455 514 504 480 463 469 526 471 473 479 439 465 481 440 480 446 420 494 485 475 458 453 432 427 455 455 463 442 480 464 490 504 482 505 467 505 498 519 507 530 512 571 606 608 630 691 689 641 666 641 641 675 677 596 662 582 604 589 629 574 616 608 558 672 594 613 654 648 668 598 634 635 634 619 702 638 657 628 671 649 638 614 612 634 614 641 644 634 603 616 571 589 531 587 556 584 558 594 603 566 529 577 547 522 590 552 548 569 533 502 524 496 530 487 513 542 503 489 516 503 512 501 468 509 488 521 468 489 456 509 473 468 497 500 485 464 480 493 517 517 494 495 525 479 503 499 507 555 542 522 545 557 597 612 654 652 600 637 575 590 597 598 600 632 567 591 517 548 565 559 571 569 595 614 595 583 516 552 521 590 541 581 569 577 573 554 577 572 543 566 582 525 530 501 597 509 537 567 542 551 484 533 518 534 526 470 512 497 495 501 484 489 487 458 473 530 480 494 515 479 497 488 471 493 484 439 445 404 463 480 483 485 447 443 396 482 464 444 437 467 460 489 505 472 463 420 449 468 474 517 445 487 486 466 473 444 444 451 445 485 428 442 474 469 443 453 443 450 457 488 452 473 479 418 488 449 468 457 446 464 439 476 459 482 466 464 420 486 397 465 432 468 455 464 455 458 486 464 442 472 476 456 444 467 446 411 454 484 461 471 449 435 470 454 411 455 456 431 469 484 443 449 481 449 470 455 422 417 444 461 463 493 476 457 453 463 493 476 487 473 476 456 437 474 453 519 543 473 536 512 445 450 481 544 517 455 479 540 480 464 461 482 489 474 470 484 445 486 493 503 475 513 502 457 493 463 503 493 521 502 496 496 524 518 505 482 509 524 521 515 548 542 545 523 494 541 541 510 517 536 507 513 498 494 473 499 511 498 469 479 488 525 488 479 472 501 495 525 548 474 472 446 478 468 469 474 514 476 496 469 501 476 479 455 511 497 502 487 486 487 480 469 467 498 509 539 550 553 559 556 528 556 510 568 500 538 538 522 543 546 495 505 509 516 507 499 510 493 498 541 529 494 497 500 515 487 513 484 499 493 482 496 488 489 507 487 481 486 502 489 486 486 499 479 482 516 467 479 489 494 484 516 431 455 427 505 463 496 466 435 483 432 476 441 472 478 449 527 486 465 431 473 494 482 472 474 443 460 459 459 469 425 426 460 443 409 447 468 461 467 461 451 480 446 455 436 452 421 409 429 463 433 427 453 457 482 425 425 458 442 482 453 444 417 458 418 454 468 464 441 439 471 454 465 449 442 437 459 431 445 432 443 421 454 442 460 441 443 459 425 441 487 436 430 438 469 438 457 417 431 440 436 440 443 437 429 418 453 391 476 425 440 472 431 401 441 432 441 447 409 472 446 443 458 443 439 388 427 445 417 438 433 433 440 424 440 417 451 463 450 404 450 429 468 423 467 404 454 391 435 404 420 438 443 418 455 418 401 449 463 385 418 429 457 464 437 445 455 422 416 474 436 485 411 451 460 429 446 458 430 404 412 465 418 437 410 479 431 439 402 454 443 411 444 429 424 438 459 451 467 493 449 455 403 458 456 398 451 443 445 441 411 455 436 428 413 430 455 455 454 446 440 414 400 425 451 470 484 446 450 426 424 511 450 478 441 474 436 472 482 443 499 475 485 481 457 442 467 435 473 510 428 453 411 439 439 438 442 423 452 458 474 425 486 461 500 480 447 465 435 490 436 467 469 454 421 482 471 453 446 444 493 441 468 489 417 487 421 443 394 465 450 446 442 456 479 416 479 425 432 451 424 450 452 485 420 423 455 461 498 442 410 403 453 497 443 406 429 428 409 442 414 452 431 418 466 420 427 403 454 474 421 457 431 467 451 426 427 431 461 424 432 431 468 409 441 420 450 437 442 460 428 444 412 425 427 399 430 407 440 398 380 435 437 411 440 451 401 469 392 402 420 454 433 400 447 413 429 413 451 418 393 465 452 429 415 422 432 457 394 392 423 420 454 453 436 441 429 431 436 468 421 458 452 416 481 446 411 400 421 421 402 435 423 413 423 395 421 443 406 455 421 420 442 452 444 422 410 431 397 438 441 464 416 420 437 413 438 459 424 431 422 442 433 447 461 427 446 454 435 425 463 458 445 431 433 444 471 425 436 431 433 438 428 457 407 401 432 456 412 485 450 416 460 451 488 427 453 424 395 428 392 426 404 414 452 436 447 459 449 425 393 404 391 415 432 464 440 450 424 444 424 428 398 354 430 458 402 451 437 461 428 398 426 449 439 433 445 363 406 447 452 429 439 415 437 430 429 394 425 428 446 427 469 438 418 429 421 403 411 412 404 427 469 422 457 414 431 439 478 428 407 412 455 397 407 460 430 432 454 458 475 414 423 442 444 412 456 456 453 446 450 432 436 411 451 457 411 463 391 426 410 422 451 450 443 389 482 413 445 426 449 458 420 455 461 420 431 425 392 389 428 431 486 449 436 436 423 402 452 401 446 456 446 431 411 461 416 445 458 420 410 450 452 453 433 413 459 435 430 409 452 449 435 453 450 418 476 400 453 430 417 496 401 437 416 452 382 464 435 418 412 395 454 429 429 421 455 439 464 438 439 451 443 436 456 440 447 472 416 422 480 401 445 433 412 452 430 450 427 504 445 439 443 442 469 445 459 425 426 437 428 445 407 431 474 466 435 463 456 426 449 432 487 435 424 455 458 481 464 414 428 440 468 436 443 443 433 483 465 455 498 443 463 447 456 442 443 464 407 475 465 438 440 428 424 407 440 407 463 466 446 481 453 468 436 466 455 487 451 489 497 431 406 418 484 440 424 490 474 499 467 475 442 497 474 476 430 469 466 499 497 460 478 463 445 420 469 467 473 440 445 464 452 472 478 480 452 430 492 416 435 457 430 466 489 446 466 436 445 499 468</counts>
			</dataPoints>
		</scan>
	</xrdMeasurement>
</xrdMeasurements>
