<?xml version="1.0"?>
<xrdMeasurements xmlns="http://www.xrdml.com/XRDMeasurement/2.2" xmlns:xsi="http://www.w3.org/2001/XMLSchema-instance" xsi:schemaLocation="http://www.xrdml.com/XRDMeasurement/2.2 http://www.xrdml.com/XRDMeasurement/2.2/XRDMeasurement.xsd" status="Completed" recordIdentifier="{0550C776-4466-437D-98D0-E86F2B6118AA}">
	<comment>
		<entry>Configuration=Spinner, Owner=User, Creation date=8/6/2021 9:39:53 AM</entry>
		<entry>Goniometer=Theta/Theta; Minimum step size 2Theta:0.0001; Minimum step size Omega:0.0001</entry>
		<entry>Sample stage=Reflection-transmission spinner; Minimum step size Phi:0.1</entry>
		<entry>Diffractometer system=EMPYREAN</entry>
		<entry>Measurement program=C:\PANalytical\Data Collector\Programs\Spinner.xrdmp, Identifier={DE8F904A-7376-4C00-B887-D084786650A7}</entry>
	</comment>
	<sample type="To be analyzed">
		<id></id>
		<name></name>
		<preparedBy></preparedBy>
	</sample>
	<xrdMeasurement measurementType="Scan" status="Completed" sampleMode="Reflection">
		<comment>
			<entry>PHD Lower Level = 5.79 (keV), PHD Upper Level = 12.80 (keV)</entry>
		</comment>
		<usedWavelength intended="K-Alpha 1">
			<kAlpha1 unit="Angstrom">1.5405980</kAlpha1>
			<kAlpha2 unit="Angstrom">1.5444260</kAlpha2>
			<kBeta unit="Angstrom">1.3922500</kBeta>
			<ratioKAlpha2KAlpha1>0.5000</ratioKAlpha2KAlpha1>
		</usedWavelength>
		<incidentBeamPath>
			<radius unit="mm">240.00</radius>
			<xRayTube id="1010041" name="Empyrean Cu LFF (9430 033 7300x) DK432123">
				<tension unit="kV">40.0</tension>
				<current unit="mA">40.0</current>
				<anodeMaterial>Cu</anodeMaterial>
				<focus type="Line">
					<length unit="mm">12.0</length>
					<width unit="mm">0.4</width>
					<takeOffAngle unit="deg">6.0</takeOffAngle>
				</focus>
			</xRayTube>
			<filter id="20010004" name="Beta-filter Nickel">
				<material>Ni</material>
				<thickness unit="mm">0.020</thickness>
			</filter>
			<sollerSlit id="21010002" name="Soller slits 0.04 rad.">
				<opening unit="rad">0.0400</opening>
			</sollerSlit>
			<mask id="22080002" name="Fixed incident beam mask 10 mm">
				<width unit="mm">6.60</width>
			</mask>
			<antiScatterSlit id="22010003" name="Fixed slit 1°" xsi:type="fixedAntiScatterSlitType">
				<height unit="mm">1.52</height>
			</antiScatterSlit>
			<divergenceSlit id="22010012" name="Programmable divergence slit" xsi:type="fixedDivergenceSlitType">
				<distanceToSample unit="mm">140.00</distanceToSample>
				<angle unit="deg">0.5</angle>
			</divergenceSlit>
		</incidentBeamPath>
		<sampleMovement xsi:type="spinningSampleMovementType">
			<spinnerRevolutionTime unit="seconds">4.0</spinnerRevolutionTime>
		</sampleMovement>
		<diffractedBeamPath>
			<radius unit="mm">240.00</radius>
			<antiScatterSlit id="22110001" name="AS slit 3.9 mm (X'Celerator)" xsi:type="fixedAntiScatterSlitType">
				<height unit="mm">3.90</height>
			</antiScatterSlit>
			<sollerSlit id="21010008" name="Soller slits 0.0175 rad.">
				<opening unit="rad">0.0175</opening>
			</sollerSlit>
			<monochromator id="23010030" name="Diffracted beam monochr. for X'Celerator and Cu" hybrid="false">
				<crystal type="Symmetric" shape="Flat">C</crystal>
				<numberOfReflections>1</numberOfReflections>
				<hkl>
					<h>0</h>
					<k>0</k>
					<l>2</l>
				</hkl>
			</monochromator>
			<detector id="7010013" name="X'Celerator detector" xsi:type="rtmsDetectorType">
				<phd unit="%">
					<lowerLevel>36.0</lowerLevel>
					<upperLevel>79.5</upperLevel>
				</phd>
				<mode>Scanning</mode>
				<activeLength unit="deg">2.1223</activeLength>
			</detector>
		</diffractedBeamPath>
		<scan appendNumber="0" mode="Continuous" scanAxis="Gonio" status="Completed">
			<header>
				<startTimeStamp>2022-10-24T12:40:03+02:00</startTimeStamp>
				<endTimeStamp>2022-10-24T12:44:40+02:00</endTimeStamp>
				<author>
					<name>User</name>
				</author>
				<source>
					<applicationSoftware version="7.1">Data Collector</applicationSoftware>
					<instrumentControlSoftware version="8.2  20201204">EMPYREAN</instrumentControlSoftware>
					<instrumentID>0000000011085918</instrumentID>
				</source>
			</header>
			<dataPoints>
				<positions axis="2Theta" unit="deg">
					<startPosition>10.01671127</startPosition>
					<endPosition>119.97686114</endPosition>
				</positions>
				<positions axis="Omega" unit="deg">
					<startPosition>5.00835564</startPosition>
					<endPosition>59.98843057</endPosition>
				</positions>
				<positions axis="Phi" unit="deg">
					<commonPosition>207.3</commonPosition>
				</positions>
				<commonCountingTime unit="seconds">10.160</commonCountingTime>
				<counts unit="counts">35 20 38 27 23 28 21 25 25 25 17 21 28 21 26 20 24 20 25 17 27 18 20 24 27 24 29 27 19 24 18 19 17 18 13 21 17 16 17 24 23 16 17 17 14 16 11 17 17 13 19 24 18 23 19 18 26 26 12 17 20 23 21 10 23 23 19 27 14 27 31 17 28 17 14 8 12 21 12 12 21 16 18 18 16 16 10 14 17 16 13 14 16 18 19 19 19 13 6 21 12 14 16 19 9 14 16 19 6 17 8 18 16 18 19 10 10 9 12 18 14 8 18 20 13 14 13 16 17 18 16 17 18 16 11 9 19 13 19 12 13 18 14 12 8 13 12 11 11 16 16 10 11 6 17 21 8 12 16 8 21 19 6 10 16 10 18 12 13 11 5 12 17 13 11 8 19 6 14 9 10 11 12 16 10 9 14 14 11 5 20 11 9 12 12 13 8 13 9 17 14 13 6 8 11 17 14 16 18 11 14 11 5 12 6 3 10 9 8 4 10 16 5 6 12 13 9 20 14 10 11 24 8 6 11 5 8 8 8 11 9 3 11 9 8 11 10 18 6 10 11 8 12 8 11 10 6 3 12 6 12 4 4 9 10 8 5 13 3 11 12 14 10 11 11 17 3 12 11 8 8 5 9 10 3 4 12 9 9 10 6 5 8 12 9 11 8 6 4 9 9 9 8 6 4 2 5 13 10 10 6 8 4 5 6 10 9 10 10 10 3 12 2 6 9 1 5 6 10 16 13 9 2 5 8 8 8 4 5 5 3 8 5 6 5 2 6 8 1 3 6 9 12 5 11 6 3 5 4 4 8 3 5 12 6 11 10 5 9 6 8 6 6 6 2 6 5 9 5 9 1 4 6 6 2 6 3 8 8 6 8 5 9 4 3 4 6 8 10 5 2 6 8 3 5 4 6 5 5 8 8 6 12 6 2 10 6 3 10 9 5 6 8 12 5 11 6 14 12 6 24 21 27 72 138 205 305 286 196 127 56 44 24 21 14 10 17 8 10 8 9 4 10 5 8 4 6 8 5 6 9 2 3 6 4 3 5 4 4 5 5 6 3 10 3 5 11 6 6 2 5 5 4 4 5 5 3 4 4 2 2 4 4 2 3 1 3 8 6 4 6 5 3 5 2 4 5 6 6 4 8 3 4 0 3 1 1 2 5 3 2 4 3 5 0 5 3 4 4 3 2 2 3 3 3 3 3 3 2 5 2 2 8 2 3 5 4 3 4 2 0 5 0 4 9 5 8 6 5 8 1 2 5 2 3 3 3 2 3 2 6 3 4 10 6 2 6 4 10 5 1 3 1 3 4 2 4 1 5 3 2 2 3 3 2 1 2 5 4 0 4 4 2 5 5 4 1 2 3 1 4 4 1 1 2 5 4 2 4 3 6 3 2 1 1 6 3 3 3 2 5 3 1 2 3 6 5 8 3 4 2 8 3 2 3 1 5 6 5 2 4 3 2 3 1 2 0 4 4 5 3 3 2 2 2 3 2 2 0 2 2 9 1 3 6 10 3 4 3 4 4 6 6 1 4 5 8 1 0 9 8 5 4 4 9 4 4 10 9 14 8 18 20 35 40 79 127 263 329 364 329 226 147 114 57 26 23 13 12 14 6 3 13 4 8 10 9 3 3 3 4 5 4 2 4 5 1 5 1 3 1 3 6 3 3 5 4 3 3 1 4 6 6 4 2 9 3 6 2 5 2 3 2 6 5 6 2 1 5 4 2 10 3 8 9 3 10 8 14 17 25 35 35 73 141 243 262 267 211 206 118 80 44 31 12 9 8 8 11 6 5 6 8 4 8 4 6 3 3 2 4 2 1 3 1 2 4 3 2 5 2 3 3 2 3 1 1 3 2 4 1 4 2 5 6 2 4 4 1 0 3 1 3 8 9 0 3 2 1 1 1 5 2 3 4 4 1 2 2 3 2 1 3 4 2 1 4 4 2 0 2 4 1 0 2 2 2 3 1 0 2 3 2 5 1 2 3 1 5 6 9 11 23 13 21 14 12 19 2 2 2 2 5 2 2 6 2 4 5 3 2 2 3 2 5 3 0 0 0 2 2 1 5 1 2 2 3 3 4 2 2 0 5 4 2 5 8 6 6 10 11 33 82 91 89 100 88 76 35 39 13 16 5 16 10 3 5 5 5 3 5 2 1 3 3 1 0 2 2 3 3 0 2 1 1 5 1 1 2 2 1 3 1 2 2 3 2 4 2 1 2 0 5 2 1 0 3 5 1 0 0 2 3 2 2 2 2 0 1 0 2 2 2 0 0 6 1 0 2 5 1 3 5 6 11 19 18 8 8 19 13 5 8 3 1 0 0 0 3 1 2 2 4 1 1 0 0 0 2 2 3 1 2 1 0 0 2 1 1 0 1 1 2 1 2 1 1 1 3 2 0 1 2 2 2 2 1 1 3 1 2 2 2 2 4 2 1 1 1 3 0 4 1 2 0 1 3 3 1 0 1 1 0 0 0 1 1 2 1 1 1 1 4 1 2 3 0 0 1 3 1 1 1 1 0 2 1 0 1 2 1 1 2 2 2 3 2 2 2 2 1 1 1 1 1 1 1 4 2 3 0 2 1 2 4 1 1 2 1 3 3 0 2 1 1 2 2 3 1 3 4 1 4 1 1 2 1 2 0 3 1 0 5 1 3 5 1 5 1 3 3 0 3 1 5 4 8 8 12 16 11 20 21 43 81 110 126 80 84 76 74 52 24 17 13 8 3 3 2 1 4 2 4 2 3 1 2 1 4 3 1 4 0 2 1 1 4 2 1 1 1 1 0 2 2 3 2 4 1 2 0 2 1 2 3 0 0 0 2 2 1 2 3 0 3 0 2 0 6 1 0 2 2 0 1 0 2 2 2 2 1 3 3 2 5 2 3 3 0 3 1 0 3 4 3 1 2 1 1 1 0 4 2 3 1 2 3 1 2 0 2 2 1 4 2 1 1 5 2 5 3 9 4 3 1 4 2 5 4 5 5 3 10 8 6 17 12 31 26 33 55 85 154 266 258 205 168 183 167 152 82 67 40 27 14 16 5 6 14 3 8 8 3 4 3 4 2 5 1 1 6 0 1 1 2 1 1 2 4 3 3 0 0 2 1 1 2 2 2 2 0 1 0 1 2 0 6 5 1 0 1 2 2 1 3 0 4 1 2 5 1 3 3 3 3 5 4 1 4 3 1 2 1 4 1 1 5 1 1 1 0 2 1 3 3 2 1 0 1 5 0 2 2 2 9 5 5 10 14 20 18 12 12 12 13 11 10 8 4 3 5 5 2 4 2 0 0 1 0 2 1 3 3 1 0 3 2 1 1 0 1 2 0 0 1 0 3 0 1 0 2 0 2 2 2 1 0 2 0 0 1 2 2 0 2 3 0 1 2 0 3 2 1 1 1 0 2 2 2 2 1 0 0 1 2 1 1 1 0 0 1 4 3 0 3 0 0 3 0 1 0 3 0 1 0 1 2 0 2 0 2 2 1 3 2 0 3 1 4 0 0 3 0 0 3 0 0 3 3 2 1 0 1 4 5 1 1 2 3 1 1 1 2 4 1 0 0 1 2 2 3 3 2 4 11 5 9 18 21 39 63 65 71 51 47 33 41 50 31 24 11 14 9 3 8 5 2 4 4 1 8 2 5 4 1 1 0 2 2 3 2 2 1 2 2 1 5 4 4 6 2 2 5 10 3 12 16 24 43 65 84 84 77 52 46 58 54 44 38 31 19 10 11 13 5 6 3 1 2 4 0 1 0 0 3 0 2 3 2 2 3 1 3 2 2 2 2 1 0 2 1 0 2 1 1 4 3 2 0 1 0 1 0 1 2 0 1 0 3 1 2 2 0 2 1 0 3 1 1 2 2 1 0 0 1 0 0 0 2 1 0 3 1 0 2 2 1 1 0 0 1 3 0 0 0 1 0 0 1 0 1 1 1 0 0 2 2 2 2 0 0 2 0 0 2 0 1 0 0 3 1 1 2 0 0 2 1 1 0 2 0 1 2 0 0 2 0 2 0 0 0 0 0 1 3 2 1 2 0 0 2 0 0 2 1 1 0 0 1 1 1 1 5 1 1 1 1 0 0 3 2 3 2 0 1 0 0 0 1 2 0 0 0 1 1 0 0 1 3 0 1 1 2 1 1 1 0 0 3 0 0 3 0 0 8 0 1 0 1 0 2 0 0 2 3 1 5 1 0 1 1 1 1 2 1 4 2 10 6 11 9 10 16 33 33 34 44 27 24 27 16 18 25 19 6 4 9 13 11 6 8 4 6 5 3 9 3 2 2 0 0 0 2 0 0 0 1 0 1 2 1 0 1 0 1 1 0 3 2 1 2 1 1 2 1 0 0 0 1 1 2 1 0 1 1 0 0 0 2 0 0 0 0 1 2 1 0 0 0 0 0 2 0 3 1 0 0 1 2 2 0 0 0 1 0 0 1 2 2 0 1 0 0 0 2 0 2 1 6 3 2 1 0 2 2 1 4 2 8 8 17 23 20 18 19 6 10 5 11 14 8 5 1 2 4 1 3 0 1 0 0 0 0 3 2 2 1 1 1 1 1 0 1 2 0 2 0 1 0 1 2 1 1 0 1 0 4 2 2 1 1 1 1 1 0 1 5 1 2 1 0 2 2 5 4 5 6 16 12 17 13 14 2 9 9 9 6 1 4 1 2 3 0 2 2 0 1 1 1 0 0 0 0 1 1 0 0 1 3 0 3 2 6 6 6 3 2 2 2 2 2 2 2 0 4 2 1 3 1 0 1 1 1 0 0 1 0 0 0 3 2 0 0 0 2 2 0 2 1 2 0 3 2 1 1 1 0 2 1 0 1 3 3 2 1 6 5 8 6 10 4 2 2 4 9 6 2 4 5 4 8 1 2 1 2 2 0 1 1 0 3 1 1 1 1 0 1 0 2 1 1 0 3 0 1 1 1 1 2 2 1 2 1 2 2 1 1 2 1 2 3 2 1 3 1 4 4 3 4 5 16 18 11 20 14 16 11 8 8 9 4 3 4 8 3 2 2 1 1 1 2 1 0 0 1 0 1 1 2 1 1 2 3 0 1 0 0 0 0 0 0 2 3 3 5 3 2 4 6 2 5 3 1 2 8 5 3 0 0 0 3 3 2 4 2 1 4 5 5 12 20 19 17 10 9 9 12 6 14 13 17 8 9 4 1 2 5 1 2 0 1 1 0 3 0 1 3 0 0 0 2 2 0 3 2 2 0 1 1 1 1 0 2 0 0 1 2 0 1 0 0 1 1 0 2 1 1 1 3 1 1 0 0 0 1 1 1 0 1 0 4 1 0 0 0 1 2 1 5 2 0 1 2 1 4 2 1 0 2 1 0 0 2 1 1 1 2 3 2 5 1 5 6 2 6 5 16 11 25 29 29 31 28 19 26 12 21 11 18 14 14 12 13 5 6 4 2 3 1 2 2 2 1 1 3 1 0 0 0 1 3 1 1 2 1 0 0 2 0 2 1 2 1 1 0 1 2 2 1 1 1 0 1 1 0 1 0 3 0 0 1 1 1 1 0 2 0 2 0 0 1 3 2 1 2 0 0 0 4 2 1 0 2 0 4 2 1 3 1 1 4 1 2 1 1 0 1 1 2 0 3 1 2 3 0 3 0 0 0 1 0 1 2 2 0 2 2 0 2 0 2 2 3 0 0 2 4 2 1 0 0 1 1 1 3 1 2 1 1 2 3 3 2 2 2 4 2 3 8 6 11 13 31 11 32 18 14 20 6 11 13 13 14 16 23 11 9 3 2 5 2 3 1 2 0 1 5 2 0 2 1 0 0 0 1 3 0 0 2 1 2 0 1 2 2 4 4 6 6 2 6 2 3 1 2 4 2 4 4 1 4 3 3 0 2 3 2 3 3 1 2 5 2 5 2 1 1 3 4 4 3 3 1 2 2 1 2 1 2 2 0 1 1 1 1 1 0 0 1 1 0 1 0 3 2 3 1 2 0 1 1 0 1 0 1 2 0 2 0 1 0 0 2 3 2 3 1 1 0 3 1 1 1 0 3 0 2 0 1 0 1 2 0 0 0 0 2 3 3 1 2 3 1 1 0 0 0 2 2 0 0 2 0 3 0 1 3 2 1 2 0 0 0 2 2 1 1 1 1 0 0 0 1 1 1 0 1 0 1 2 0 2 0 0 1 0 0 0 1 0 0 0 0 1 1 2 0 1 0 1 1 1 2 0 1 0 0 1 2 0 0 1 0 2 2 0 0 0 1 1 1 0 1 4 0 0 0 1 2 2 1 1 1 0 2 3 2 0 4 0 0 1 1 1 2 0 2 1 0 0 1 0 1 2 2 1 1 6 1 4 1 2 2 2 1 2 5 0 3 5 1 1 1 3 1 3 0 2 1 1 2 1 2 1 1 0 3 0 1 0 2 1 0 0 3 2 1 0 1 0 1 1 1 0 1 0 0 1 2 1 1 0 1 2 0 0 2 1 0 0 1 0 1 0 0 0 1 3 2 1 0 0 0 0 2 0 0 1 2 2 1 1 2 2 2 2 2 0 0 3 1 1 1 0 2 3 2 0 3 2 2 1 0 0 0 1 0 0 0 1 0 3 1 2 0 1 0 1 1 1 2 2 1 0 0 1 1 0 2 2 1 1 4 3 6 6 8 18 11 17 11 9 18 11 13 16 17 13 10 5 4 2 10 13 9 12 6 6 6 3 9 3 4 3 4 0 3 2 1 1 2 2 4 0 1 4 2 0 5 2 5 4 3 4 4 10 4 5 12 16 13 18 11 16 5 10 5 4 8 11 5 4 11 9 4 9 5 4 3 1 1 1 4 2 1 0 3 1 0 1 2 1 1 2 2 1 0 0 1 2 0 3 1 0 1 1 1 1 0 2 0 2 1 0 0 3 3 2 1 3 0 3 1 1 1 1 1 1 0 3 3 1 1 4 1 1 2 0 0 1 0 1 2 0 2 1 0 0 2 1 2 1 3 0 2 5 2 0 0 0 1 3 2 4 2 1 4 2 1 1 2 3 0 1 2 0 4 1 2 0 3 1 1 2 3 0 0 0 1 1 1 3 4 0 1 0 3 1 0 2 0 1 1 0 3 1 0 0 1 0 0 0 2 1 0 0 2 0 1 1 2 1 1 3 4 2 2 0 2 1 3 0 1 2 0 2 0 3 1 0 2 1 1 3 1 0 2 1 0 2 0 1 0 0 0 1 2 0 0 0 1 1 2 2 4 1 2 0 1 0 0 3 3 3 0 4 0 1 3 1 0 1 2 6 5 4 1 2 2 5 5 4 3 4 6 9 12 16 14 18 14 20 17 8 8 9 12 6 12 5 4 12 10 11 10 16 12 4 10 8 1 4 3 0 3 3 5 1 0 4 4 0 1 2 1 2 2 4 1 6 3</counts>
			</dataPoints>
		</scan>
	</xrdMeasurement>
</xrdMeasurements>
