<?xml version="1.0"?>
<xrdMeasurements xmlns="http://www.xrdml.com/XRDMeasurement/2.2" xmlns:xsi="http://www.w3.org/2001/XMLSchema-instance" xsi:schemaLocation="http://www.xrdml.com/XRDMeasurement/2.2 http://www.xrdml.com/XRDMeasurement/2.2/XRDMeasurement.xsd" status="Completed" recordIdentifier="{31550B4E-F098-4D2D-A422-9C800B6F5C17}">
	<comment>
		<entry>Configuration=Spinner, Owner=User, Creation date=8/6/2021 9:39:53 AM</entry>
		<entry>Goniometer=Theta/Theta; Minimum step size 2Theta:0.0001; Minimum step size Omega:0.0001</entry>
		<entry>Sample stage=Reflection-transmission spinner; Minimum step size Phi:0.1</entry>
		<entry>Diffractometer system=EMPYREAN</entry>
		<entry>Measurement program=C:\PANalytical\Data Collector\Programs\!!!!!Spinner.xrdmp, Identifier={B149CD12-21B8-4640-8BFD-A909294C0D4B}</entry>
	</comment>
	<sample type="To be analyzed">
		<id></id>
		<name></name>
		<preparedBy></preparedBy>
	</sample>
	<xrdMeasurement measurementType="Scan" status="Completed" sampleMode="Reflection">
		<comment>
			<entry>PHD Lower Level = 5.79 (keV), PHD Upper Level = 12.80 (keV)</entry>
		</comment>
		<usedWavelength intended="K-Alpha 1">
			<kAlpha1 unit="Angstrom">1.5405980</kAlpha1>
			<kAlpha2 unit="Angstrom">1.5444260</kAlpha2>
			<kBeta unit="Angstrom">1.3922500</kBeta>
			<ratioKAlpha2KAlpha1>0.5000</ratioKAlpha2KAlpha1>
		</usedWavelength>
		<incidentBeamPath>
			<radius unit="mm">240.00</radius>
			<xRayTube id="1010041" name="Empyrean Cu LFF (9430 033 7300x) DK432123">
				<tension unit="kV">40.0</tension>
				<current unit="mA">40.0</current>
				<anodeMaterial>Cu</anodeMaterial>
				<focus type="Line">
					<length unit="mm">12.0</length>
					<width unit="mm">0.4</width>
					<takeOffAngle unit="deg">6.0</takeOffAngle>
				</focus>
			</xRayTube>
			<filter id="20010004" name="Beta-filter Nickel">
				<material>Ni</material>
				<thickness unit="mm">0.020</thickness>
			</filter>
			<sollerSlit id="21010002" name="Soller slits 0.04 rad.">
				<opening unit="rad">0.0400</opening>
			</sollerSlit>
			<mask id="22080002" name="Fixed incident beam mask 10 mm">
				<width unit="mm">6.60</width>
			</mask>
			<antiScatterSlit id="22010003" name="Fixed slit 1°" xsi:type="fixedAntiScatterSlitType">
				<height unit="mm">1.52</height>
			</antiScatterSlit>
			<divergenceSlit id="22010012" name="Programmable divergence slit" xsi:type="fixedDivergenceSlitType">
				<distanceToSample unit="mm">140.00</distanceToSample>
				<angle unit="deg">1</angle>
			</divergenceSlit>
		</incidentBeamPath>
		<sampleMovement xsi:type="spinningSampleMovementType">
			<spinnerRevolutionTime unit="seconds">2.0</spinnerRevolutionTime>
		</sampleMovement>
		<diffractedBeamPath>
			<radius unit="mm">240.00</radius>
			<antiScatterSlit id="22110001" name="AS slit 3.9 mm (X'Celerator)" xsi:type="fixedAntiScatterSlitType">
				<height unit="mm">3.90</height>
			</antiScatterSlit>
			<sollerSlit id="21010008" name="Soller slits 0.0175 rad.">
				<opening unit="rad">0.0175</opening>
			</sollerSlit>
			<monochromator id="23010030" name="Diffracted beam monochr. for X'Celerator and Cu" hybrid="false">
				<crystal type="Symmetric" shape="Flat">C</crystal>
				<numberOfReflections>1</numberOfReflections>
				<hkl>
					<h>0</h>
					<k>0</k>
					<l>2</l>
				</hkl>
			</monochromator>
			<detector id="7010013" name="X'Celerator detector" xsi:type="rtmsDetectorType">
				<phd unit="%">
					<lowerLevel>36.0</lowerLevel>
					<upperLevel>79.5</upperLevel>
				</phd>
				<mode>Scanning</mode>
				<activeLength unit="deg">2.1223</activeLength>
			</detector>
		</diffractedBeamPath>
		<scan appendNumber="0" mode="Continuous" scanAxis="Gonio" status="Completed">
			<header>
				<startTimeStamp>2024-10-15T15:32:00+02:00</startTimeStamp>
				<endTimeStamp>2024-10-15T15:36:33+02:00</endTimeStamp>
				<author>
					<name>User</name>
				</author>
				<source>
					<applicationSoftware version="7.1">Data Collector</applicationSoftware>
					<instrumentControlSoftware version="8.2  20201204">EMPYREAN</instrumentControlSoftware>
					<instrumentID>0000000011085918</instrumentID>
				</source>
			</header>
			<dataPoints>
				<positions axis="2Theta" unit="deg">
					<startPosition>10.02311127</startPosition>
					<endPosition>119.98326114</endPosition>
				</positions>
				<positions axis="Omega" unit="deg">
					<startPosition>5.01155563</startPosition>
					<endPosition>59.99163057</endPosition>
				</positions>
				<positions axis="Phi" unit="deg">
					<commonPosition>0.0</commonPosition>
				</positions>
				<commonCountingTime unit="seconds">10.160</commonCountingTime>
				<counts unit="counts">69 58 62 69 64 56 56 61 70 56 46 61 47 54 49 69 56 52 51 47 61 58 58 41 61 70 66 64 49 69 57 73 58 54 47 57 58 49 50 65 61 51 46 49 66 46 66 71 66 58 67 54 48 57 54 54 46 44 46 59 57 56 62 50 47 43 49 43 58 70 50 42 51 41 54 40 42 39 63 70 38 51 47 43 57 49 39 50 62 48 64 56 50 47 46 62 47 55 58 57 51 42 39 41 55 50 51 47 54 52 51 52 42 43 40 51 38 59 47 44 44 49 33 48 44 55 58 43 47 59 42 57 69 32 38 48 41 40 28 25 46 54 51 43 48 25 34 55 33 55 64 47 48 34 38 43 44 56 55 29 38 44 28 42 42 49 33 36 36 32 40 33 54 29 42 33 58 42 40 50 42 44 46 48 54 43 40 36 43 51 49 38 36 47 42 41 52 48 41 25 42 44 34 39 49 55 50 46 52 39 47 42 50 31 36 42 33 38 51 70 51 63 50 78 88 104 93 74 65 50 47 39 52 34 35 47 32 39 43 40 35 32 31 29 33 48 35 44 41 40 48 35 36 54 38 40 39 64 41 44 42 28 59 31 31 31 35 42 56 39 29 26 24 39 26 39 35 46 43 32 42 40 39 38 41 40 42 29 29 25 57 49 42 47 32 40 36 49 40 44 46 36 44 52 50 40 33 51 33 42 35 31 34 39 46 36 29 28 49 43 32 31 28 25 46 42 40 36 44 48 40 50 42 46 36 48 39 36 39 36 36 40 35 41 33 35 26 46 33 51 42 43 40 56 48 33 48 34 50 34 26 34 27 29 32 43 40 40 38 38 38 35 39 47 34 40 55 38 38 47 33 24 48 39 35 39 43 43 40 43 49 50 43 49 39 29 42 57 40 36 44 54 36 55 47 63 52 48 47 54 58 31 43 51 50 38 62 57 81 103 109 173 175 216 206 169 152 95 73 79 93 64 103 122 141 168 178 158 118 88 78 58 48 44 56 41 50 44 38 43 40 39 38 54 44 17 34 46 34 35 29 39 66 51 33 33 35 36 42 50 52 50 46 34 44 44 31 42 49 40 39 23 29 32 48 43 44 42 40 43 41 49 29 48 33 49 48 44 56 44 52 41 42 41 43 47 48 56 41 47 57 43 52 59 59 76 54 61 59 56 64 77 55 63 61 52 44 58 58 57 80 65 77 79 85 72 76 92 126 155 170 247 294 406 575 873 1022 1124 1018 873 633 463 360 210 155 137 107 125 95 99 85 61 56 67 67 50 66 50 57 49 47 54 47 50 43 52 56 57 61 56 54 38 61 51 41 44 50 58 43 44 44 50 46 39 38 46 46 54 54 42 52 54 55 55 67 48 54 47 35 47 61 56 63 56 51 57 59 66 40 51 62 49 46 35 62 51 61 52 78 54 69 65 58 63 105 94 123 95 141 173 222 339 533 630 730 764 722 582 457 324 229 155 127 89 93 84 78 100 71 65 49 62 63 57 58 41 44 39 71 38 49 49 39 65 43 43 47 42 38 59 32 42 47 48 56 49 49 48 49 57 49 39 46 33 44 50 41 35 46 50 54 41 35 52 46 49 39 42 66 43 54 54 57 38 40 63 66 62 81 94 124 160 188 206 237 233 244 236 165 161 145 158 178 176 192 206 164 147 117 86 84 58 54 62 49 59 47 57 58 73 57 71 57 52 81 108 99 141 179 186 208 194 158 145 101 81 61 73 61 49 42 40 57 49 77 59 64 65 66 55 65 55 40 64 46 48 40 47 52 41 41 58 44 35 46 48 31 31 32 46 25 34 44 38 35 46 34 50 36 36 43 38 44 41 38 33 52 35 46 36 44 28 33 28 32 43 44 29 40 41 28 39 39 50 32 46 36 28 47 52 29 40 19 24 56 42 44 35 36 32 36 33 35 63 63 63 88 94 84 103 104 77 82 54 54 56 47 44 46 51 39 26 40 44 31 31 40 36 29 51 55 52 24 61 46 44 43 42 48 40 39 47 52 38 35 29 39 27 54 48 41 56 42 46 46 48 31 40 55 44 54 63 47 44 73 51 74 81 100 111 133 131 139 165 155 132 149 97 99 99 81 78 105 95 100 93 89 77 91 93 87 102 73 86 109 71 91 62 66 41 44 52 51 56 43 36 43 43 38 41 42 52 42 32 32 23 31 42 57 40 28 32 33 31 39 34 36 36 21 39 41 36 38 51 49 55 39 28 44 33 40 38 43 29 33 36 41 36 40 41 41 26 44 51 44 36 31 39 40 41 42 27 48 39 31 54 52 44 29 26 29 32 31 46 40 42 44 41 42 51 35 39 42 54 57 51 44 49 52 85 63 82 82 102 118 107 99 59 74 76 62 49 55 43 56 40 50 43 41 58 69 69 62 99 93 92 78 109 91 69 65 66 50 47 44 57 36 42 33 48 36 48 38 34 46 44 40 29 32 29 29 31 38 41 43 39 57 33 33 46 43 51 41 23 32 29 54 43 44 54 38 38 36 31 38 41 41 42 34 35 44 52 55 40 41 29 50 39 39 40 29 42 41 39 43 25 54 38 33 39 41 44 42 55 46 46 40 43 50 35 50 49 58 44 46 48 61 48 39 35 49 41 61 42 55 56 72 61 79 94 77 78 101 124 145 167 224 240 196 218 180 172 177 116 97 93 71 63 77 56 58 62 50 70 62 64 67 67 89 105 168 178 251 261 268 268 238 200 195 164 124 122 119 123 185 183 157 178 154 138 143 118 103 88 84 63 64 62 63 57 65 42 76 69 62 91 109 87 96 100 81 86 76 51 55 44 49 46 54 44 55 56 33 39 48 64 39 56 44 44 43 38 54 47 49 46 44 34 36 40 35 39 35 43 51 49 48 41 47 47 49 47 46 36 41 35 40 42 40 38 40 43 55 36 39 42 44 59 52 47 40 36 47 35 40 43 58 52 59 42 47 59 64 58 87 71 97 107 117 154 110 140 131 117 126 96 93 92 89 66 64 59 41 52 52 62 49 54 44 47 57 58 63 36 46 38 40 40 62 64 65 69 76 100 101 125 138 167 152 140 176 154 148 175 149 146 139 146 110 95 107 95 95 100 107 94 117 91 118 129 115 93 96 87 67 86 47 57 49 46 62 39 41 44 47 50 52 48 66 41 35 43 43 40 52 38 61 52 58 55 87 80 100 109 135 115 104 99 86 88 81 49 74 71 50 76 47 56 48 48 39 47 42 72 63 80 88 87 109 97 85 87 79 65 66 78 79 65 74 62 64 80 51 64 42 55 48 52 48 24 35 52 41 33 27 29 41 50 41 33 47 50 43 43 51 40 25 55 40 44 46 41 42 41 49 48 64 78 61 74 82 107 105 142 118 130 126 118 134 125 102 107 122 96 77 92 71 54 62 64 80 65 59 54 42 42 47 34 54 62 33 40 44 62 40 52 49 39 44 40 33 64 62 77 64 87 82 100 87 92 80 87 84 69 61 64 66 64 47 56 56 62 84 55 95 104 85 84 94 99 100 76 76 93 58 62 47 48 42 50 48 56 65 73 47 48 77 81 88 87 99 123 120 116 145 116 107 84 77 87 56 71 63 61 48 47 56 36 35 43 54 47 32 44 46 29 39 44 36 39 39 34 52 46 43 36 43 44 36 48 47 69 70 63 55 58 59 55 52 50 47 66 58 54 55 51 49 42 36 57 52 38 41 34 46 48 41 35 44 64 44 59 52 59 65 54 65 50 55 63 55 79 74 88 92 95 108 74 97 103 104 112 99 81 79 67 77 84 67 69 69 49 57 51 69 62 42 49 34 28 35 39 48 40 44 43 34 47 43 35 38 44 41 35 38 34 41 49 40 39 39 39 44 39 33 49 42 40 47 42 55 39 35 43 38 41 49 46 39 31 41 47 46 42 49 39 36 38 31 43 33 36 39 44 27 33 39 46 40 51 44 33 36 38 36 28 23 46 31 43 47 46 43 62 50 47 47 38 47 64 40 64 51 41 49 48 49 41 39 44 32 58 41 51 49 61 54 62 55 42 39 62 43 54 36 41 48 44 41 38 55 41 28 47 46 46 40 51 33 40 47 57 57 39 35 36 39 40 47 24 54 33 49 56 41 48 65 65 63 72 79 74 70 63 67 82 70 70 61 57 64 55 57 55 47 43 61 46 42 52 41 48 49 48 40 57 46 48 55 52 64 66 36 50 35 55 52 33 44 48 49 43 69 42 65 48 69 65 42 47 55 39 32 36 46 42 47 38 38 31 38 36 28 39 28 31 27 31 39 35 36 41 36 41 43 31 40 25 38 29 48 46 40 26 47 35 39 35 39 35 38 42 44 41 34 43 40 46 35 27 42 57 49 54 50 52 51 46 39 50 55 51 59 67 61 55 46 55 67 66 69 80 74 82 69 80 73 59 70 54 57 55 61 57 46 42 48 50 48 31 36 41 40 44 40 38 43 39 38 58 38 41 29 39 57 38 58 29 52 69 57 51 57 50 69 54 59 49 43 41 56 47 59 36 51 41 46 48 33 62 43 46 54 57 42 56 56 46 49 52 48 58 40 51 58 38 47 43 52 61 29 50 51 61 49 49 55 43 44 39 35 52 50 44 33 51 48 39 42 39 33 43 52 51 55 46 41 33 44 36 43 48 67 72 58 62 48 48 48 61 58 47 47 58 62 44 44 44 42 40 34 43 47 34 35 41 47 46 38 36 46 42 38 43 44 40 21 31 34 38 36 38 50 40 35 47 40 40 34 38 46 40 61 34 42 33 48 48 47 39 50 65 55 51 40 35 51 28 48 49 56 52 39 41 49 61 43 54 64 47 47 66 50 52 56 52 50 51 57 49 51 32 49 40 44 49 24 44 40 40 34 41 43 41 39 42 62 49 51 64 47 47 47 64 72 43 58 59 51 52 57 58 58 49 64 61 52 61 67 74 77 67 70 55 61 70 69 57 46 66 66 55 48 49 44 51 57 57 54 42 48 46 44 64 51 61 49 59 64 57 69 58 42 55 54 67 44 55 51 43 59 55 49 46 40 50 51 54 55 55 38 55 55 51 42 46 54 32 44 63 52 33 41 48 42 44 39 33 55 34 38 39 40 35 36 36 41 50 47 34 40 50 36 49 55 43 42 42 50 47 40 44 44 44 50 58 66 51 39 55 55 54 55 32 27 47 55 55 31 27 24 38 39 58 46 62 42 52 43 38 48 50 47 50 49 59 52 56 52 41 52 50 58 42 54 57 66 44 67 64 50 47 41 52 65 71 65 69 57 77 82 58 58 73 71 61 67 52 55 50 55 71 51 62 73 55 56 46 47 56 50 51 50 58 47 50 48 46 35 48 25 28 43 40 44 67 42 52 61 50 67 43 33 38 71 52 46 43 51 49 52 47 50 65 57 44 56 62 74 59 51 64 63 57 43 54 52 39 46 44 66 65 40 38 27 44 44 56 58 55 50 38 40 36 46 38 32 34 35 51 42 52 52 51 54 47 46 56 44 43 64 49 51 41 49 33 40 47 54 47 38 21 46 31 58 39 40 43 28 32 39 44 32 31 32 33 40 41 34 38 39 33 32 26 48 47 47 48 35 50 50 41 34 35 42 38 41 40 43 39 50 34 50 41 29 47 44 43 38 26 31 41 48 43 56 48 46 50 36 47 48 63 52 59 51 43 51 35 48 48 57 35 42 44 44 52 42 36 36 47 47 51 42 55 35 55 46 49 55 40 43 38 59 61 41 46 46 65 50 47 77 59 57 41 46 64 48 57 49 46 47 51 65 47 50 46 59 56 38 49 52 52 48 39 56 57 62 64 55 76 62 65 52 54 73 66 64 65 69 59 67 62 71 72 74 67 51 70 58 72 74 69 66 66 64 65 70 66 56 48 47 61 64 43 50 52 54 35 41 38 48 54 52 40 32 47 47 55 39 41 52 51 58 48 44 58 58 49 57 54 55 65 58 48 52 39 65 74 48 61 69 50 63 42 56 56 55 64 64 59 65 56 52 62 73 52 43 49 64 71 65 71 70 77 64 59 46 61 64 48 61 48 63 59 42 40 65 69 54 47 48 55 52 38 46 62 51 61 69 41 59 48 44 38 47 56 76 38 46 47 57 41 51 43 46 59 57 61 67 52 51 44 58 43 47 52 43 72 61 52 76 52 47 54 49 43 70 48 42 65 47 40 42 48 47 38 56 51 42 48 43 54 39 70 51 52 43 36 36 35 57 57 51 39 57 35 32 49 33 49 44 38 36 46 42 38 41 35 32 42 29 35 40 55 44 57 40 42 36 51 41 36 35 34 41 43 42 35 72 38 36 36 51 55 40 54 54 48 48 41 52 34 29 41 33 40 42 29 43 59 35 56 40 50 40 35 42 29 42 51 36 25 44 44 34 35 48 36 39 40 35 35 48 36 33 36 36 59 29 28 33 42 46 36 34 34 29 40 49 57 42 43 40 39 39 36 40 48 59 65 39 41 42 43 48 51 38 40 52 42 55 49 51 50 47 52 40 43 62 49 46 47 36 39 48 49 39 38 48 40 42 43 41 54 61 49 40 35 38 41 44 31 35 50 40 44 36 50 42 47 57 41 44 35 54 43 50 47 54 55 54 58 51 33 32 57 55 41 47 35 43 50 52 49 34 46 43 55 44 49 58 44 63 52 40 58 52 48 55 57 52 46 57 66 88 50 34 39 47 48 49 33 39 46 69 59 52 48 50 47 40 46 34 49 49 51 39 52 52 55 44 54 55 57 62 39 58 38 66 41 61 56 44 51 42 41 43 51 50 48 43 58 63 54 67 63 67 54 52 69 64 55 52 49 51 40 63 51 46 52 59 38 57 59 56 44 49 56 47 40 56 49 40 42 26 50 59 69 42 46 54 51 33 57 61 48 63 64 32 44 54 55 64 39 41 42 40 59 58 44 41 50 42 38 52 54 46 44 36 42 49 54 40 50 54 52 46 59 39 42 49 57 56 47 44 66 44 56 44 56 43 48 40 48 39 32 35 41 41 55 49 44 24 41 32 46 41 40 46 27 33 38 54 49 38 59 48 35 44 29 32 31 35 36 46 36 29 44 40 50 67 49 36 46 46 43 36 44 49 46 38 43 43 43 41 59 54 33 44 41 46 50 41 50 38 44 38 49 41 41 31 40 51 55 58 40 42 44 55 47 44 40 48 40 63 40 48 55 49 54 48 49 62 70 32 50 49 43 47 43 42 44 51 41 43 56 42 46 50 54 33 41 52 48 26 40 42 32 43 41 48 50 38 47 44 34 40 40 40 47 50 54 39 55 46 42 50 46 55 44 44 48 47 62 38 40 58 40 48 35 40 32 46 42 32 51 42 39 39 47 47 49 43 40 50 40 50 51 40 36 40 40 49 55 34 46 50 50 29 48 40 31 47 52 41 39 49 38 55 40 46</counts>
			</dataPoints>
		</scan>
	</xrdMeasurement>
</xrdMeasurements>
